time_s,ecg_like_signal
0.0,-0.017173449990456485
0.001953125,-0.008257846454967832
0.00390625,-0.004949167440188535
0.005859375,-0.011938356066110383
0.0078125,-0.0012748174691691574
0.009765625,-0.0048508891043749615
0.01171875,0.01026500435195833
0.013671875,0.0015022536845442167
0.015625,-0.013619496311335497
0.017578125,0.004157655380801022
0.01953125,0.012411136190421482
0.021484375,-0.009690908189856193
0.0234375,0.004857931921296916
0.025390625,-0.008876103436226765
0.02734375,-0.015075722883856278
0.029296875,0.01663905255206959
0.03125,-0.012626381608124678
0.033203125,-0.001197381178044123
0.03515625,-0.015842428740581067
0.037109375,0.002004231384010873
0.0390625,0.003859846995516171
0.041015625,0.01594344954231173
0.04296875,-0.008469650416839523
0.044921875,0.002548907974507256
0.046875,0.0032611368110964617
0.048828125,0.006377759264666541
0.05078125,-0.012742070856088826
0.052734375,-0.009485351813511298
0.0546875,-0.0043350272069987055
0.056640625,0.005596829772837483
0.05859375,0.0027136564605243253
0.060546875,0.015271382309993623
0.0625,0.018545037791308783
0.064453125,-0.0022417303534319174
0.06640625,-0.013956986670381455
0.068359375,0.0016733755810269275
0.0703125,0.006350432281759013
0.072265625,-0.006957315092959463
0.07421875,-0.0025399745779463257
0.076171875,-0.0018693356835741057
0.078125,-0.006458010660585475
0.080078125,0.004966981234280617
0.08203125,0.013725632901141777
0.083984375,0.018300431038681116
0.0859375,-0.005689381124475923
0.087890625,0.003700153421259227
0.08984375,-0.0026070370611112766
0.091796875,0.009371275943939019
0.09375,0.0032194406794882405
0.095703125,0.01150109952986677
0.09765625,-0.004358591178138438
0.099609375,0.002482000726353913
0.1015625,-0.006565667838723409
0.103515625,-0.003124931172859944
0.10546875,0.009794623064183322
0.107421875,-0.012095836699706581
0.109375,-0.006658891473656804
0.111328125,0.01755286444218491
0.11328125,-0.008702608155193936
0.115234375,0.009442388368709956
0.1171875,0.0036038920891600596
0.119140625,0.004770775554733646
0.12109375,-0.005163541764471017
0.123046875,-0.0071706826100092136
0.125,0.005975230717620043
0.126953125,-0.0043120212729753655
0.12890625,-0.0007868531040794865
0.130859375,0.017028762776680383
0.1328125,0.015326690273054912
0.134765625,0.02385452757407708
0.13671875,0.011078387674877864
0.138671875,0.0044368244634562185
0.140625,0.002180100209464601
0.142578125,0.003259398837494675
0.14453125,0.0021977005978446075
0.146484375,-0.012247969347777223
0.1484375,-0.0021692533855109906
0.150390625,0.001618653270768396
0.15234375,0.0018437488566536032
0.154296875,0.0024932995410483806
0.15625,-0.008022568591779267
0.158203125,0.021222475233560245
0.16015625,-0.00456922382766221
0.162109375,-0.007933095087654381
0.1640625,0.0016985654105598946
0.166015625,0.002769866805158503
0.16796875,0.003130798240186737
0.169921875,-0.0234882843768498
0.171875,-0.006311603681939028
0.173828125,0.010945524231512552
0.17578125,-0.0053812178010969255
0.177734375,0.015726910889790998
0.1796875,0.002184260222046578
0.181640625,-0.00029844458275630787
0.18359375,0.008647957266181727
0.185546875,-0.004701831430877278
0.1875,0.001368543105907324
0.189453125,0.0010301803495235775
0.19140625,0.0037305899364581817
0.193359375,0.0027449203685880282
0.1953125,-0.008408969072115337
0.197265625,0.004162858835430731
0.19921875,-0.006589127930875711
0.201171875,0.009857728774170222
0.203125,0.005226966078458123
0.205078125,0.0048681175079275385
0.20703125,-0.007013749826927353
0.208984375,0.004758148057199896
0.2109375,0.003830647450500529
0.212890625,0.01171028024980367
0.21484375,0.007294915979807663
0.216796875,0.00905842298422437
0.21875,-0.012399837130545549
0.220703125,0.006156977066503864
0.22265625,-0.005143298445727529
0.224609375,-0.0034510081494127935
0.2265625,-0.0009521250029920733
0.228515625,0.007230834538403528
0.23046875,-0.0018892855217889015
0.232421875,0.0002654762995868894
0.234375,0.004840761741481333
0.236328125,0.00597718129701731
0.23828125,-0.0012948419278054032
0.240234375,0.014517652154135273
0.2421875,0.024002489467414217
0.244140625,0.0013217826254935988
0.24609375,0.005320612227470164
0.248046875,-0.0034980534157674987
0.25,0.01158276532437866
0.251953125,0.01494370311620153
0.25390625,-0.015975717143434567
0.255859375,0.0032012979285990996
0.2578125,0.0031737587552199365
0.259765625,-0.006055426727377998
0.26171875,-0.006818769437657497
0.263671875,-0.0021913137130940355
0.265625,-0.012403192320915428
0.267578125,0.0051123697891105
0.26953125,-0.0015968773264340333
0.271484375,-0.007693672478412529
0.2734375,-0.0028579955828478784
0.275390625,-0.0004871315396442992
0.27734375,0.007097473534160785
0.279296875,-0.0021719006663958305
0.28125,-0.005715992945740747
0.283203125,0.005292732860599874
0.28515625,-0.011991762888836086
0.287109375,-0.004428406067460179
0.2890625,0.00541227683008819
0.291015625,0.0025941538859388853
0.29296875,0.02378636409924484
0.294921875,-0.0011413677159596476
0.296875,7.442426618195303e-05
0.298828125,-0.000251824033224484
0.30078125,-0.0015543814296804476
0.302734375,0.007503108511145603
0.3046875,-0.009465672811206218
0.306640625,-0.022137176141486383
0.30859375,0.001662755282479499
0.310546875,0.006250968818610176
0.3125,-0.001259013142977821
0.314453125,-0.007855465975356453
0.31640625,-0.03142031442948746
0.318359375,-0.0011843279068222171
0.3203125,0.01583085336432168
0.322265625,0.011812499188150187
0.32421875,0.008172775236793942
0.326171875,0.008555177406378076
0.328125,0.012802378329759738
0.330078125,-0.005733018232725483
0.33203125,0.010358966421976493
0.333984375,0.00010149032909408302
0.3359375,0.0019842248685379934
0.337890625,0.014244958649869598
0.33984375,-0.016663891368338887
0.341796875,-0.0032845428749446477
0.34375,-0.009009522783897463
0.345703125,0.020108139316256844
0.34765625,0.009002942688635177
0.349609375,0.001589662396653101
0.3515625,0.01019593521562005
0.353515625,-0.007325700490762338
0.35546875,-0.006659682362463943
0.357421875,-0.003353877576976096
0.359375,0.001250309868770597
0.361328125,-0.0027225916031290175
0.36328125,0.007359505216892019
0.365234375,-0.005485486054380548
0.3671875,0.00804579532919469
0.369140625,-0.011720647738944087
0.37109375,-0.002557226827847144
0.373046875,0.011353539591238342
0.375,0.018087528308636806
0.376953125,0.007293881000491024
0.37890625,0.005853284310972765
0.380859375,-0.009499877373199388
0.3828125,0.011220978887917087
0.384765625,-0.009709135241884687
0.38671875,-0.005705995530065494
0.388671875,0.0041454549958304865
0.390625,0.011250721066038883
0.392578125,-0.0030889297705069254
0.39453125,0.0033150380457443542
0.396484375,-0.018308514927544955
0.3984375,-0.006103610450193257
0.400390625,0.006740215269999703
0.40234375,-0.010842044101280012
0.404296875,-0.0006557441637779662
0.40625,0.003039888657560361
0.408203125,0.006925045607010504
0.41015625,0.012907352630818075
0.412109375,-0.014704138670959129
0.4140625,-0.0017640868250942167
0.416015625,-0.0003242229779354821
0.41796875,0.02739100628837306
0.419921875,-0.007699449773421777
0.421875,-0.012487554925928318
0.423828125,0.0022320843585828267
0.42578125,0.001907651148182425
0.427734375,0.0008495742609945883
0.4296875,0.005019607364410967
0.431640625,-0.0011371508660848802
0.43359375,0.0002247935154293282
0.435546875,-0.016187738203178356
0.4375,-0.005271192592028462
0.439453125,-0.0015347608798810676
0.44140625,-0.020673671604957884
0.443359375,0.0033720382310241403
0.4453125,-0.008966271068172946
0.447265625,0.009989254771364175
0.44921875,0.008941331718417985
0.451171875,0.0023063991268668076
0.453125,-0.00847023010080151
0.455078125,0.006680513090582775
0.45703125,-0.008136963822940985
0.458984375,8.817510707169609e-05
0.4609375,0.021646748066986247
0.462890625,0.0036576276602373614
0.46484375,0.009979049254678662
0.466796875,0.004167197612662423
0.46875,0.0025459446529277215
0.470703125,-0.0016926917750184128
0.47265625,-0.013440641709365942
0.474609375,-0.0022669566011051974
0.4765625,-0.02190250018258643
0.478515625,0.012336021529650909
0.48046875,0.011295666891134792
0.482421875,0.006431544536088164
0.484375,0.009961550569137204
0.486328125,0.0015547712416725732
0.48828125,-0.0032369064892456448
0.490234375,-0.012579869352362955
0.4921875,-0.004793333654342264
0.494140625,0.0029630440216499706
0.49609375,0.006775288836882633
0.498046875,0.01966564330852882
0.5,0.006397681302480886
0.501953125,0.0038506887454307966
0.50390625,-0.000984781348838982
0.505859375,-0.006907181715048793
0.5078125,-0.0037956312432840694
0.509765625,-0.026694504583248253
0.51171875,-0.005237512121899707
0.513671875,-0.011603467920656472
0.515625,-0.01535503041203977
0.517578125,0.0064586294425592276
0.51953125,0.02248102472536757
0.521484375,0.010621412146284741
0.5234375,-0.0016229791140367818
0.525390625,0.0037104228393799836
0.52734375,-0.00601115970441486
0.529296875,0.00034997456006800686
0.53125,0.01398406724571126
0.533203125,0.018713931932699598
0.53515625,0.00358138338431114
0.537109375,-0.003957643744605484
0.5390625,-0.004620490251796705
0.541015625,-0.000418967308569054
0.54296875,0.018310794838553204
0.544921875,0.004843913134068726
0.546875,-0.015280645418794312
0.548828125,0.012018858021870341
0.55078125,0.006603139269194319
0.552734375,0.009193472122747032
0.5546875,-0.0034349208714080383
0.556640625,0.007112104075180114
0.55859375,-0.004555716772467413
0.560546875,0.020179693846258777
0.5625,-0.0028631605679665622
0.564453125,0.005282649417679387
0.56640625,-0.010056354189765769
0.568359375,0.022651206442515826
0.5703125,0.01182734838014713
0.572265625,0.0009863375448735602
0.57421875,-0.007138508298384732
0.576171875,-0.004252292251427093
0.578125,0.0005089333837800775
0.580078125,-0.006474497699505469
0.58203125,-0.009107903037731211
0.583984375,0.012243829538153003
0.5859375,-0.009967496348365211
0.587890625,-0.01684253062785096
0.58984375,0.0008634218769044394
0.591796875,0.0012501686264333176
0.59375,0.014851051659893642
0.595703125,0.004918132021994137
0.59765625,0.01174440451410781
0.599609375,-0.00921334103757401
0.6015625,-0.0035021864071599984
0.603515625,0.0038706158309282958
0.60546875,0.005690935526054025
0.607421875,0.0028580610244562706
0.609375,0.010461265559639917
0.611328125,0.011958385478871996
0.61328125,-0.006115598718224672
0.615234375,-0.009453199380359049
0.6171875,-0.006151327486899901
0.619140625,9.807860518323595e-05
0.62109375,0.026215574355086157
0.623046875,0.0074585883453328694
0.625,0.0058475378103746214
0.626953125,-0.00014425381837611324
0.62890625,0.004619202901754797
0.630859375,-0.009379233165940817
0.6328125,0.01384465774274876
0.634765625,0.004251046088661478
0.63671875,0.01279337714173292
0.638671875,-0.0004122981304949345
0.640625,-0.006825758230646633
0.642578125,0.008833087039437252
0.64453125,-0.0026960236766730944
0.646484375,0.002168179741125033
0.6484375,0.012916784593986727
0.650390625,-0.018296123046019918
0.65234375,-0.01166306979649783
0.654296875,0.0023585323037579047
0.65625,-0.014510225287216235
0.658203125,0.007828118110545313
0.66015625,-0.007975546710765023
0.662109375,-0.00514942055392467
0.6640625,0.007076650387506496
0.666015625,0.01331672798144459
0.66796875,0.02982683505856511
0.669921875,0.011977540328503726
0.671875,-0.011037089796379617
0.673828125,-0.002763837236668267
0.67578125,-0.001896323040267709
0.677734375,0.008164113666944332
0.6796875,0.006409622479169163
0.681640625,-0.007051929813142243
0.68359375,0.007172301534667414
0.685546875,0.007016426432886576
0.6875,-0.006806129880468778
0.689453125,-0.015532760751953626
0.69140625,-0.00043158512906753694
0.693359375,0.002090825138894195
0.6953125,0.017378392972589588
0.697265625,-0.00797799544602373
0.69921875,0.014420373653962704
0.701171875,-0.003766129648045401
0.703125,0.007261712407453553
0.705078125,0.015376181532920022
0.70703125,-0.0011900499501708755
0.708984375,-0.007828367012562518
0.7109375,-0.011287535692876865
0.712890625,0.009519792134413436
0.71484375,0.008263990553755752
0.716796875,0.002416589724616744
0.71875,-0.003354879862696505
0.720703125,-0.005131897758518709
0.72265625,-0.0010464950944298948
0.724609375,-0.008794309686571609
0.7265625,0.008340647461351174
0.728515625,0.021249027194496464
0.73046875,-0.01375070317797401
0.732421875,0.0031178592220416964
0.734375,-0.00022982235100962167
0.736328125,0.010458757984684548
0.73828125,0.008874278087312835
0.740234375,0.005391355422761757
0.7421875,0.009724516644638099
0.744140625,-0.01432177737230695
0.74609375,-0.0025569946311328573
0.748046875,0.0021894652282460083
0.75,-0.010975623671031944
0.751953125,-0.006897998461712778
0.75390625,-0.010214728166140611
0.755859375,-5.760244986859243e-05
0.7578125,0.008422486137227956
0.759765625,-0.005065050394991625
0.76171875,-0.004803320441589372
0.763671875,-0.019651148657023196
0.765625,0.0076212336839100924
0.767578125,0.010194353348444783
0.76953125,0.0019907431069815292
0.771484375,-0.0005937359047024886
0.7734375,0.003178514448813528
0.775390625,0.00724709913810873
0.77734375,-0.008510695733704337
0.779296875,-0.03353557452287734
0.78125,0.022158879145888752
0.783203125,-0.015702614083036037
0.78515625,0.0009814918327591094
0.787109375,0.015012642132397282
0.7890625,0.015483718034642146
0.791015625,0.009371475227310098
0.79296875,0.007910891064926236
0.794921875,0.01809235812652865
0.796875,0.011277483535571176
0.798828125,-0.00232641859245212
0.80078125,-0.002140823476426032
0.802734375,0.01193066731970103
0.8046875,0.010871427718639335
0.806640625,0.030752882120251887
0.80859375,0.007228699655576978
0.810546875,0.01919719541963156
0.8125,0.03237245272840336
0.814453125,0.01637455268631802
0.81640625,0.044873874770020056
0.818359375,0.034681872879064976
0.8203125,0.03261776742584393
0.822265625,0.056395984504543174
0.82421875,0.03721735258415225
0.826171875,0.046452845270875565
0.828125,0.07265524258457805
0.830078125,0.05798994043534069
0.83203125,0.06202250382866319
0.833984375,0.07527646871381698
0.8359375,0.06988276282371214
0.837890625,0.07854934121231369
0.83984375,0.10362627839483564
0.841796875,0.0988702367880261
0.84375,0.10987309224115077
0.845703125,0.11580923908717213
0.84765625,0.10807659945615744
0.849609375,0.1591959989819701
0.8515625,0.15746899084411797
0.853515625,0.16193856598901096
0.85546875,0.148338027953216
0.857421875,0.1574870198218836
0.859375,0.17623699386643826
0.861328125,0.18435565336891238
0.86328125,0.1911418686500235
0.865234375,0.19100768710913518
0.8671875,0.21514578043639054
0.869140625,0.20358747256526205
0.87109375,0.24302996824696632
0.873046875,0.24079665181760945
0.875,0.25204805053100443
0.876953125,0.26413071745607053
0.87890625,0.27044454811501845
0.880859375,0.27675846627255596
0.8828125,0.26016723489640636
0.884765625,0.27280632294180984
0.88671875,0.27602514605575584
0.888671875,0.28029550075586696
0.890625,0.28274382287232747
0.892578125,0.30302517059161704
0.89453125,0.32395731301519265
0.896484375,0.2877863026944646
0.8984375,0.31144729181572234
0.900390625,0.29511076395298247
0.90234375,0.29822691526969636
0.904296875,0.2819042606858191
0.90625,0.29295962654612656
0.908203125,0.2989673447355065
0.91015625,0.28426606811962135
0.912109375,0.28875953689235595
0.9140625,0.28291353595034713
0.916015625,0.27702647756281246
0.91796875,0.2638059149431466
0.919921875,0.2684652709244956
0.921875,0.24466274258079226
0.923828125,0.25130061746093785
0.92578125,0.24073741387993688
0.927734375,0.2527357663510553
0.9296875,0.23935693202863803
0.931640625,0.223086269672859
0.93359375,0.22202399868765846
0.935546875,0.20065131128453031
0.9375,0.2111993415050148
0.939453125,0.19303462275438932
0.94140625,0.20233583507101127
0.943359375,0.19317434342146686
0.9453125,0.20944988158036454
0.947265625,0.2182667633661315
0.94921875,0.22813778625739708
0.951171875,0.24587796163409725
0.953125,0.2513368223463812
0.955078125,0.28004907386985595
0.95703125,0.3159321763451343
0.958984375,0.3449548658023601
0.9609375,0.39934776544732375
0.962890625,0.456926355355918
0.96484375,0.5088081774661365
0.966796875,0.5721982650868898
0.96875,0.6530803409731363
0.970703125,0.7655232410621873
0.97265625,0.8525089103066902
0.974609375,0.9288067822973652
0.9765625,1.0587682314744185
0.978515625,1.1752929995384231
0.98046875,1.2828730912425934
0.982421875,1.3884489420921564
0.984375,1.5153711481157137
0.986328125,1.6097029352392367
0.98828125,1.7009640278680553
0.990234375,1.7981397619928297
0.9921875,1.8745421319391438
0.994140625,1.92455243006809
0.99609375,1.993082276865724
0.998046875,2.0064329555926195
1.0,2.013425976464814
1.001953125,2.0249743718152606
1.00390625,2.0036507433815016
1.005859375,1.9439384521079899
1.0078125,1.873088370449668
1.009765625,1.792492978357814
1.01171875,1.699244152971556
1.013671875,1.6116617893287626
1.015625,1.4995773408328872
1.017578125,1.37096018510767
1.01953125,1.2660408882560534
1.021484375,1.1646979947494567
1.0234375,1.0268639230742156
1.025390625,0.9241985863372338
1.02734375,0.8115816651929652
1.029296875,0.7357020940539348
1.03125,0.6240163250036022
1.033203125,0.5298170670857146
1.03515625,0.45346096140067166
1.037109375,0.41077849898903246
1.0390625,0.33211593505992965
1.041015625,0.2919244985079635
1.04296875,0.23851228505819624
1.044921875,0.23893004539097476
1.046875,0.18433997122277626
1.048828125,0.17448886837241706
1.05078125,0.15160936149129442
1.052734375,0.13976050992948702
1.0546875,0.1302318107778564
1.056640625,0.11648762320537646
1.05859375,0.11298608613719943
1.060546875,0.1056456071297401
1.0625,0.09360732382099735
1.064453125,0.10678888290849185
1.06640625,0.09949069685072956
1.068359375,0.12250521340012961
1.0703125,0.10223316779681203
1.072265625,0.10708456248338069
1.07421875,0.12470990931312222
1.076171875,0.10574811264345449
1.078125,0.1295265794976998
1.080078125,0.15085842555226303
1.08203125,0.14610190609534793
1.083984375,0.13848340017688174
1.0859375,0.1680248403995988
1.087890625,0.15402465912651114
1.08984375,0.19236991512137197
1.091796875,0.1993847268217496
1.09375,0.1618785578923649
1.095703125,0.19940683630652856
1.09765625,0.21260203405260686
1.099609375,0.2096728977718091
1.1015625,0.22297326139611504
1.103515625,0.24585885329545834
1.10546875,0.25880981039686357
1.107421875,0.2463636434720047
1.109375,0.2650885529133838
1.111328125,0.2694613647345947
1.11328125,0.2684115859893006
1.115234375,0.28132264766939014
1.1171875,0.29338582496133947
1.119140625,0.3136460920581133
1.12109375,0.28938824962659154
1.123046875,0.32400055803965044
1.125,0.3331642649773696
1.126953125,0.3379262844844882
1.12890625,0.35639785523252765
1.130859375,0.36118777542866526
1.1328125,0.37468986175900454
1.134765625,0.400815152420915
1.13671875,0.4081512234016596
1.138671875,0.39789708277384994
1.140625,0.4224085640824748
1.142578125,0.43141411068579294
1.14453125,0.4432571897215462
1.146484375,0.45178679717589415
1.1484375,0.4589437827586349
1.150390625,0.4633723576584245
1.15234375,0.47059925837752103
1.154296875,0.48398766889058864
1.15625,0.4968214847725951
1.158203125,0.4946613856708859
1.16015625,0.5091083686976517
1.162109375,0.5298134475803775
1.1640625,0.5112435341017323
1.166015625,0.5271339001762657
1.16796875,0.543403672709268
1.169921875,0.5572694345127803
1.171875,0.5481822024367767
1.173828125,0.5418739677199828
1.17578125,0.5577369318687618
1.177734375,0.5727744462812628
1.1796875,0.5648986479535978
1.181640625,0.5911101435452443
1.18359375,0.5699794113309291
1.185546875,0.5778928003279485
1.1875,0.5728952677080419
1.189453125,0.6101687310542834
1.19140625,0.5897920885890332
1.193359375,0.5986191520435101
1.1953125,0.5992275788066302
1.197265625,0.5913151785134707
1.19921875,0.5888350261145704
1.201171875,0.6027530295871448
1.203125,0.6072687755395269
1.205078125,0.5997707073118071
1.20703125,0.5935058185444404
1.208984375,0.6184815500068279
1.2109375,0.5679685919253812
1.212890625,0.5867435169570301
1.21484375,0.5950917842564171
1.216796875,0.5920887857352606
1.21875,0.5787796761395713
1.220703125,0.5809846170966316
1.22265625,0.5741132800696711
1.224609375,0.5417697290982018
1.2265625,0.5679239834626498
1.228515625,0.5498531303800119
1.23046875,0.5374680370988013
1.232421875,0.5363911545674261
1.234375,0.5192433453766189
1.236328125,0.5191495020640635
1.23828125,0.5147359414339737
1.240234375,0.48272526097760654
1.2421875,0.4883703212945017
1.244140625,0.4972259664100914
1.24609375,0.49292947725443836
1.248046875,0.4523626979102381
1.25,0.4653069446221649
1.251953125,0.462907212703262
1.25390625,0.46419023777562857
1.255859375,0.4339450034374732
1.2578125,0.4245285867606606
1.259765625,0.4174118939059136
1.26171875,0.43288790009779377
1.263671875,0.39892205916239365
1.265625,0.4063309169950141
1.267578125,0.3682034559730396
1.26953125,0.37237231092232936
1.271484375,0.3586971801833124
1.2734375,0.3299298272961705
1.275390625,0.3466398067844719
1.27734375,0.31965295898786217
1.279296875,0.31943319141386634
1.28125,0.3178772078190932
1.283203125,0.2965181639706075
1.28515625,0.29989910097537714
1.287109375,0.2668335131553828
1.2890625,0.2664736511961209
1.291015625,0.26460540835588586
1.29296875,0.25248631231038726
1.294921875,0.23794293075063902
1.296875,0.22340752716610862
1.298828125,0.20991721525428855
1.30078125,0.21018934679572748
1.302734375,0.19671125928771033
1.3046875,0.1825115487016377
1.306640625,0.18946992134898596
1.30859375,0.17202687501295827
1.310546875,0.16783146182351968
1.3125,0.1659162937891051
1.314453125,0.14973903330000154
1.31640625,0.12979440478061793
1.318359375,0.1602315335187941
1.3203125,0.12889186158323948
1.322265625,0.13666342874508577
1.32421875,0.11602931419345955
1.326171875,0.1098960041126863
1.328125,0.13150618436032074
1.330078125,0.10936760334694133
1.33203125,0.08327375037015858
1.333984375,0.09450167236998773
1.3359375,0.09687228106438506
1.337890625,0.08271794205766418
1.33984375,0.08173570570779548
1.341796875,0.08225625432604146
1.34375,0.07449456991137483
1.345703125,0.07295701496820253
1.34765625,0.07207455980085595
1.349609375,0.06741425756824107
1.3515625,0.07268832552476336
1.353515625,0.054259353165502816
1.35546875,0.05573448308870174
1.357421875,0.03457736395018095
1.359375,0.054503299152638185
1.361328125,0.033865823756394534
1.36328125,0.034053618506216674
1.365234375,0.04869694125946992
1.3671875,0.03242501451563217
1.369140625,0.025387765271790007
1.37109375,0.023322299329788448
1.373046875,0.019207289137372074
1.375,0.02650217011588571
1.376953125,0.033632408453808466
1.37890625,0.022786445405151057
1.380859375,0.026976067371929684
1.3828125,0.01575592251236917
1.384765625,0.023431779942913792
1.38671875,0.024539811346061115
1.388671875,0.015228022997338457
1.390625,0.011301443984019421
1.392578125,0.01573410554891755
1.39453125,-0.004703636912045693
1.396484375,0.018526009396888827
1.3984375,0.002958504810419561
1.400390625,0.011903094953196013
1.40234375,0.010457926238241792
1.404296875,-0.00213041170106765
1.40625,0.007527507747421428
1.408203125,0.02132384247648649
1.41015625,0.010130288203233456
1.412109375,0.003275866497214925
1.4140625,0.008042718744703142
1.416015625,0.0015229584668549519
1.41796875,0.012455044518497074
1.419921875,-0.0064591870855388684
1.421875,-0.0010233113770159083
1.423828125,-0.02552312681258268
1.42578125,-0.011077645733460331
1.427734375,0.008985282105782831
1.4296875,0.004160976164617169
1.431640625,-0.002261094434322318
1.43359375,-0.007674118458652578
1.435546875,-0.006276197572135743
1.4375,0.003301288883909373
1.439453125,0.0028182792853079174
1.44140625,-0.006853861121433213
1.443359375,0.01216160241305735
1.4453125,0.006536425973065722
1.447265625,-0.0013050983480597364
1.44921875,0.004400045514501929
1.451171875,0.007199031358372793
1.453125,-0.0062980367316886575
1.455078125,0.011770018962399832
1.45703125,0.001095485141540931
1.458984375,-0.0005609487443474724
1.4609375,-0.01176626092130061
1.462890625,-0.017167131077293684
1.46484375,0.003931164811565043
1.466796875,0.007849651378116876
1.46875,0.011383851347890337
1.470703125,-0.007740227215543091
1.47265625,-0.0033875214758177902
1.474609375,0.003086287800201437
1.4765625,-0.004502304777007904
1.478515625,-0.006323326551943949
1.48046875,-0.0072313002688081445
1.482421875,-0.007738225109836606
1.484375,0.017812448106692316
1.486328125,0.0025867569555202098
1.48828125,0.004728934663671064
1.490234375,0.006684012244239152
1.4921875,0.01785573495542673
1.494140625,0.009416137376465796
1.49609375,0.01488739235152937
1.498046875,-0.013693482352464311
1.5,-0.017078138875856467
1.501953125,-0.013535628586798172
1.50390625,0.010192384841940252
1.505859375,0.005142800472445949
1.5078125,0.008990694147514307
1.509765625,0.001026462281137853
1.51171875,0.003837948684204423
1.513671875,0.010420189198315832
1.515625,-0.0031368521759389477
1.517578125,-0.017378899602042717
1.51953125,0.007610821313795313
1.521484375,-0.005981811751741019
1.5234375,-0.0015025680058631879
1.525390625,-0.002332023476771037
1.52734375,0.011492862782759492
1.529296875,-0.009191222598868318
1.53125,-0.0005594769500307224
1.533203125,0.011352324918087799
1.53515625,-0.010203160314098448
1.537109375,-0.003328557482026837
1.5390625,0.020986691427834377
1.541015625,0.007289925241742351
1.54296875,-0.010307908921686034
1.544921875,0.005029060630749599
1.546875,-0.01771435040934599
1.548828125,0.003992551115555837
1.55078125,-0.0022506169800125516
1.552734375,0.01461353217593905
1.5546875,-0.014101661984886278
1.556640625,0.004630460999146968
1.55859375,0.013649223009477997
1.560546875,-0.005107333998779523
1.5625,-0.010652384866118574
1.564453125,0.005356074407037579
1.56640625,-0.019227497726560266
1.568359375,-0.0034179834656776547
1.5703125,-0.004016320081951329
1.572265625,-0.00218609446909547
1.57421875,0.0017577406091054016
1.576171875,-0.011855213102993296
1.578125,-0.006386861831295303
1.580078125,-0.010001850847609389
1.58203125,0.00233195468641626
1.583984375,0.008686795756407672
1.5859375,0.007507160360792445
1.587890625,-0.009313436462677294
1.58984375,1.553632750133162e-05
1.591796875,-0.006657723587067417
1.59375,-0.000722326060876091
1.595703125,-0.007630953904120012
1.59765625,-0.0035533659987680845
1.599609375,0.005001846379752018
1.6015625,0.0064915866903684245
1.603515625,-0.0028039116418232864
1.60546875,0.0005205700204214976
1.607421875,0.01221806186493542
1.609375,-0.01868200068086874
1.611328125,0.008759689966806726
1.61328125,0.008647165915106487
1.615234375,0.006179940380037697
1.6171875,0.005381746802661058
1.619140625,0.019931566832001497
1.62109375,0.01678407824426559
1.623046875,-0.017004097829832535
1.625,0.01729911718447318
1.626953125,0.01600747265347002
1.62890625,0.008363726956063739
1.630859375,0.005861992783953322
1.6328125,0.02274803174159826
1.634765625,0.012406137956527572
1.63671875,0.009226155378741817
1.638671875,0.011157760204834343
1.640625,0.027201270709936495
1.642578125,0.01641484464476138
1.64453125,0.012156464314491338
1.646484375,0.008155586905196185
1.6484375,0.04303695588651093
1.650390625,0.03828266473077601
1.65234375,0.04443761135667794
1.654296875,0.03471651732957262
1.65625,0.055184335896616074
1.658203125,0.058420477807231294
1.66015625,0.06455825045683568
1.662109375,0.06236944761253554
1.6640625,0.07818246306749703
1.666015625,0.07174203075349493
1.66796875,0.08605472279050175
1.669921875,0.09170554925900758
1.671875,0.10111965304232785
1.673828125,0.10493349876279387
1.67578125,0.11291867859900927
1.677734375,0.1336921629019876
1.6796875,0.10415513944982623
1.681640625,0.13762737076904066
1.68359375,0.1474416623643688
1.685546875,0.15311997809349642
1.6875,0.1635653060699552
1.689453125,0.17078230368338002
1.69140625,0.19420247939526725
1.693359375,0.16670108296832425
1.6953125,0.18902834644446836
1.697265625,0.19647907194617575
1.69921875,0.2259475499717519
1.701171875,0.21963703028042095
1.703125,0.22044355696661633
1.705078125,0.23895093398506992
1.70703125,0.2279303406826092
1.708984375,0.26129365320147324
1.7109375,0.2755206670179308
1.712890625,0.26687494859761435
1.71484375,0.2759420619056825
1.716796875,0.27811204672166545
1.71875,0.2580428414002635
1.720703125,0.30222253664757753
1.72265625,0.29747984212594364
1.724609375,0.2990536001039593
1.7265625,0.30168883886179904
1.728515625,0.29197514315385326
1.73046875,0.3067398085972195
1.732421875,0.310595996028662
1.734375,0.32028954835067464
1.736328125,0.30057101579467665
1.73828125,0.28693578716912055
1.740234375,0.2984220918411475
1.7421875,0.28896060003267876
1.744140625,0.27011231611777275
1.74609375,0.29783997644026433
1.748046875,0.2546636364159823
1.75,0.2836192370568536
1.751953125,0.27739651551915867
1.75390625,0.24418404708421834
1.755859375,0.24769776589982292
1.7578125,0.24368085632496692
1.759765625,0.23635963087865636
1.76171875,0.24499870281046227
1.763671875,0.23365554518075468
1.765625,0.2196690177946837
1.767578125,0.22002443031174532
1.76953125,0.21879736748831716
1.771484375,0.18492287375483416
1.7734375,0.20227972175759273
1.775390625,0.20457923514862705
1.77734375,0.2066224975896443
1.779296875,0.18623994675771469
1.78125,0.20752965012059182
1.783203125,0.2183875347864233
1.78515625,0.22809731922947724
1.787109375,0.27657837602818786
1.7890625,0.2785101357498144
1.791015625,0.32495992472517377
1.79296875,0.36475661555438527
1.794921875,0.4071611105069039
1.796875,0.4520355592903176
1.798828125,0.5413175746905167
1.80078125,0.5988902225917512
1.802734375,0.6842177832378445
1.8046875,0.7748256764089487
1.806640625,0.8797352510532844
1.80859375,1.0011172390260752
1.810546875,1.0917079329473653
1.8125,1.2084867008374198
1.814453125,1.3337628329122044
1.81640625,1.4395910257604987
1.818359375,1.566601202894111
1.8203125,1.6482442659464673
1.822265625,1.7396961462896159
1.82421875,1.8507478206667087
1.826171875,1.9142182971850652
1.828125,1.9467718092552206
1.830078125,1.9901627482958657
1.83203125,2.0109724885340174
1.833984375,2.033582713575597
1.8359375,2.011190133686286
1.837890625,1.9769476866959794
1.83984375,1.922217354332955
1.841796875,1.8532507402714538
1.84375,1.7745552121566812
1.845703125,1.689703531541598
1.84765625,1.5794497776341225
1.849609375,1.4567683292522833
1.8515625,1.3417851456245207
1.853515625,1.2134399853590438
1.85546875,1.1085256749641486
1.857421875,0.9959871834225839
1.859375,0.8951923552624543
1.861328125,0.7865923176143444
1.86328125,0.6911235631876251
1.865234375,0.6060536844031087
1.8671875,0.5120726092771135
1.869140625,0.44565289806134606
1.87109375,0.39833974483224727
1.873046875,0.33624143935607437
1.875,0.2703957604131855
1.876953125,0.24826562903968236
1.87890625,0.202413830792376
1.880859375,0.177378310850875
1.8828125,0.15903848265363518
1.884765625,0.14491829777315685
1.88671875,0.12663770657117002
1.888671875,0.11757897653175453
1.890625,0.09854671698079734
1.892578125,0.10477740881209935
1.89453125,0.09756759474530612
1.896484375,0.101155665251888
1.8984375,0.09540375872824092
1.900390625,0.09267492536529216
1.90234375,0.11965135463566735
1.904296875,0.1151696948229911
1.90625,0.13205630424295678
1.908203125,0.14383626309725633
1.91015625,0.12094587183327947
1.912109375,0.12634997349752974
1.9140625,0.1525151985667421
1.916015625,0.14403231473796912
1.91796875,0.1538908710473011
1.919921875,0.15377178583917836
1.921875,0.18882464830079734
1.923828125,0.16038937285527466
1.92578125,0.205894634503275
1.927734375,0.18922686345312725
1.9296875,0.2156574024938013
1.931640625,0.20135712659639243
1.93359375,0.21986518133650013
1.935546875,0.21348198091654744
1.9375,0.2312918861489672
1.939453125,0.23850613414790683
1.94140625,0.24937841365138533
1.943359375,0.2769050085858546
1.9453125,0.2763901055528633
1.947265625,0.27201174168069375
1.94921875,0.27979234751202486
1.951171875,0.28312350820290333
1.953125,0.31615280804798973
1.955078125,0.32433344001519093
1.95703125,0.3330771557112169
1.958984375,0.3366979822354331
1.9609375,0.35997412034154724
1.962890625,0.35393433010058806
1.96484375,0.3701772230058955
1.966796875,0.3866599796004626
1.96875,0.3896919273392514
1.970703125,0.4122962103264929
1.97265625,0.41043762659271404
1.974609375,0.4233437994822355
1.9765625,0.441344222462625
1.978515625,0.44210755380666567
1.98046875,0.4354228245254884
1.982421875,0.4506023988225721
1.984375,0.4732749545594058
1.986328125,0.4654269793866467
1.98828125,0.49828122120064705
1.990234375,0.513468824940847
1.9921875,0.5020020313019805
1.994140625,0.5172651335381795
1.99609375,0.523934029602623
1.998046875,0.5431505599494932
2.0,0.5283604308719195
2.001953125,0.5270786896242929
2.00390625,0.5457457218755624
2.005859375,0.5508162100621742
2.0078125,0.5467729477353448
2.009765625,0.550989874762258
2.01171875,0.5592228946273968
2.013671875,0.5871161802598787
2.015625,0.5848498534599953
2.017578125,0.5871967185374186
2.01953125,0.6045237384984518
2.021484375,0.5853583499767067
2.0234375,0.6071288342218591
2.025390625,0.6038801663063783
2.02734375,0.6111741781897454
2.029296875,0.5888998110482693
2.03125,0.6107718608374151
2.033203125,0.6023591879169898
2.03515625,0.581327293762847
2.037109375,0.603457608902902
2.0390625,0.5988856313061769
2.041015625,0.6160597286165553
2.04296875,0.5877039762620934
2.044921875,0.5969899457784921
2.046875,0.5832526753000783
2.048828125,0.5770606075110846
2.05078125,0.5816619096246799
2.052734375,0.5813172581781851
2.0546875,0.5694358526455865
2.056640625,0.5704365324628771
2.05859375,0.5780118115693217
2.060546875,0.565237161303753
2.0625,0.5347335426520122
2.064453125,0.5375743800695094
2.06640625,0.5310448059771715
2.068359375,0.5196669877235316
2.0703125,0.5048579193019997
2.072265625,0.5319565646107569
2.07421875,0.48911424788983443
2.076171875,0.4828371846702596
2.078125,0.480673341943488
2.080078125,0.49168708157610425
2.08203125,0.47740478397062724
2.083984375,0.4481476430480385
2.0859375,0.4444016964107567
2.087890625,0.4480234532704695
2.08984375,0.4186430574256787
2.091796875,0.42999203870631564
2.09375,0.4165538130644443
2.095703125,0.40275075820865097
2.09765625,0.41252299402547526
2.099609375,0.3780856665901956
2.1015625,0.3691173273500345
2.103515625,0.3841038654626283
2.10546875,0.3404886889282604
2.107421875,0.33584109765445064
2.109375,0.3285214354227726
2.111328125,0.31069602938992863
2.11328125,0.3115120864583423
2.115234375,0.3090042984698596
2.1171875,0.29737531632588116
2.119140625,0.2975293693347228
2.12109375,0.27530187805094297
2.123046875,0.2629160596243998
2.125,0.23687826831261824
2.126953125,0.26288356266771745
2.12890625,0.2312497084491077
2.130859375,0.218391093184164
2.1328125,0.2158271424524146
2.134765625,0.19802544038249772
2.13671875,0.2063314151951983
2.138671875,0.19377927103719841
2.140625,0.1926210162293511
2.142578125,0.16413929908970532
2.14453125,0.17924933212129196
2.146484375,0.1769433413890766
2.1484375,0.1447544710590673
2.150390625,0.15033240092207031
2.15234375,0.1460789581030772
2.154296875,0.13257592547018351
2.15625,0.1270507130249576
2.158203125,0.12780165116911632
2.16015625,0.10344541134639264
2.162109375,0.11609501317459911
2.1640625,0.10480123218052943
2.166015625,0.1059440356473507
2.16796875,0.09440916998866754
2.169921875,0.08882575885945532
2.171875,0.07492841981857043
2.173828125,0.07351730834984378
2.17578125,0.07050084176858941
2.177734375,0.05514982712919197
2.1796875,0.06850397359147065
2.181640625,0.05040413607304391
2.18359375,0.07631709304248918
2.185546875,0.04794737680373713
2.1875,0.0661295024171935
2.189453125,0.04127727106135527
2.19140625,0.03864708878414012
2.193359375,0.03741993308935392
2.1953125,0.02667736815447721
2.197265625,0.056465390910511934
2.19921875,0.037903752422439395
2.201171875,0.04129598121343778
2.203125,0.0372536980889094
2.205078125,0.06362715379940079
2.20703125,0.03219711734735708
2.208984375,0.020219645582955574
2.2109375,0.028849474519684802
2.212890625,0.008448577402431963
2.21484375,0.02292830820660643
2.216796875,0.01746427209111891
2.21875,0.022894325263743746
2.220703125,0.010074586970980362
2.22265625,0.01562859408751503
2.224609375,0.03769749252053155
2.2265625,0.008543531826642593
2.228515625,0.007702762966487966
2.23046875,0.016016397812884324
2.232421875,-0.004372972011968258
2.234375,0.0035729309944026993
2.236328125,0.007476257923357715
2.23828125,0.008230832150766724
2.240234375,-0.0005406575751738431
2.2421875,-0.014745260275563778
2.244140625,0.014573392077201928
2.24609375,-0.00663680848844511
2.248046875,0.02057067973197954
2.25,-0.003535776061511764
2.251953125,0.012176162273152408
2.25390625,0.02005126568975785
2.255859375,0.02349322803164686
2.2578125,-0.0038196136517792633
2.259765625,0.0016601166944409022
2.26171875,-0.0008315343228868893
2.263671875,-0.013236293858574947
2.265625,0.0024067544549575535
2.267578125,-4.375064634794265e-05
2.26953125,0.005708778533474803
2.271484375,0.0005774874661737479
2.2734375,0.009983205213000616
2.275390625,0.0009860818803638079
2.27734375,0.003101190203672906
2.279296875,0.005363344182962957
2.28125,0.0045139555099859875
2.283203125,0.014448926062117168
2.28515625,-0.006996807774461222
2.287109375,-0.0018271981437091827
2.2890625,0.0049807582826513
2.291015625,-0.004402000241463022
2.29296875,0.024926645620547964
2.294921875,-0.005593372144972834
2.296875,-0.001727725597823431
2.298828125,-0.004820915174089068
2.30078125,0.014095893473390126
2.302734375,0.0045347454859902235
2.3046875,-0.015543946168034142
2.306640625,-0.0044666936951107405
2.30859375,-0.003388251385763019
2.310546875,0.007125330868590445
2.3125,-0.008155048624416116
2.314453125,-0.006559017965329332
2.31640625,-0.0016782538449500236
2.318359375,-0.013902830205623657
2.3203125,-0.008133272579171657
2.322265625,-0.01129236795588102
2.32421875,0.00743400483679596
2.326171875,-0.0027294591577492165
2.328125,0.001699592390642886
2.330078125,0.0017814628192670645
2.33203125,0.008409266332692724
2.333984375,0.007964961504279085
2.3359375,0.0018664247924261516
2.337890625,0.0043456475983907426
2.33984375,0.00418884797517797
2.341796875,0.0014351312671351825
2.34375,-0.015026870512852624
2.345703125,-0.009978129048381863
2.34765625,-0.024307680728180354
2.349609375,-0.018374688874060657
2.3515625,0.0110208585492077
2.353515625,0.010212900186644258
2.35546875,-0.006800913702321422
2.357421875,-0.017502043936544975
2.359375,-0.0004295074939537642
2.361328125,-0.003602787753333075
2.36328125,-0.015452906237681769
2.365234375,-0.00011116735494402684
2.3671875,-0.017021202390137952
2.369140625,0.0014432774089819292
2.37109375,-0.00041522096895149917
2.373046875,4.609249256619031e-05
2.375,-0.0029629908934087784
2.376953125,0.01261167034724756
2.37890625,-0.006279048260703354
2.380859375,0.004436284806782323
2.3828125,-0.0004236631069123167
2.384765625,0.001909336253270719
2.38671875,0.009117142762655215
2.388671875,0.017353497442679496
2.390625,0.0033256828134339373
2.392578125,-0.01132217544295399
2.39453125,0.00020616763476991937
2.396484375,-0.017774677721379244
2.3984375,-0.003533724006778621
2.400390625,0.006691100998113993
2.40234375,-0.00012330230063221071
2.404296875,0.012064075226973288
2.40625,-0.008728168220980983
2.408203125,0.019162449299126298
2.41015625,-0.0031748898196741083
2.412109375,-0.023803363874361758
2.4140625,0.0002704321824498021
2.416015625,-0.004037828230855657
2.41796875,0.01865954407362429
2.419921875,0.0014769221398936198
2.421875,-0.00835327082681268
2.423828125,-0.006243684207379756
2.42578125,0.004229998759497603
2.427734375,-0.014345649106632925
2.4296875,0.004619266148273603
2.431640625,0.008143187969511273
2.43359375,-0.01600419785223445
2.435546875,0.0009723388263467914
2.4375,0.015210032720887215
2.439453125,-0.022258392203651722
2.44140625,0.019188622579909956
2.443359375,0.009809737395681485
2.4453125,-0.003998779645438427
2.447265625,0.0007491625036716718
2.44921875,0.015292895109163845
2.451171875,-0.002508506368148582
2.453125,0.017220375919190643
2.455078125,3.301882049240278e-05
2.45703125,0.027755878244984915
2.458984375,-0.011172178768228838
2.4609375,0.023579004216925346
2.462890625,0.018024707272929992
2.46484375,0.00300140500967106
2.466796875,0.003648914917643224
2.46875,0.011318225029426565
2.470703125,0.028316195064883233
2.47265625,0.039950387762672894
2.474609375,0.030701729662908423
2.4765625,0.035347555795998645
2.478515625,0.028029608639597095
2.48046875,0.036487104722731166
2.482421875,0.040540738736835745
2.484375,0.04540315266469429
2.486328125,0.03533466922841368
2.48828125,0.059569288919851304
2.490234375,0.029804093097650808
2.4921875,0.04809110257251262
2.494140625,0.05189896266224086
2.49609375,0.05167790863005495
2.498046875,0.047929299708382174
2.5,0.055992698681164764
2.501953125,0.08573200798517351
2.50390625,0.08625811064710476
2.505859375,0.0865741194910936
2.5078125,0.10241508217220162
2.509765625,0.0945836804339338
2.51171875,0.11514756825489773
2.513671875,0.13053674794255674
2.515625,0.13610898765635332
2.517578125,0.14711362482001966
2.51953125,0.14611923254575057
2.521484375,0.1650807190989032
2.5234375,0.16450006933438313
2.525390625,0.15320805519622233
2.52734375,0.17884154350756548
2.529296875,0.1959632207898232
2.53125,0.20039646561695607
2.533203125,0.22135440203957632
2.53515625,0.21744366117373726
2.537109375,0.23083905126219723
2.5390625,0.22232655189468328
2.541015625,0.24286030812977963
2.54296875,0.2558023508700806
2.544921875,0.26060680808392017
2.546875,0.26000807530067443
2.548828125,0.26746196989249477
2.55078125,0.2842101170876513
2.552734375,0.28276154889501515
2.5546875,0.27914934073218967
2.556640625,0.283946355311853
2.55859375,0.29537274534568897
2.560546875,0.30209234558466336
2.5625,0.3229298483730179
2.564453125,0.2887303220417677
2.56640625,0.2958823227759981
2.568359375,0.2869418186042134
2.5703125,0.2885104752294205
2.572265625,0.3020685097660994
2.57421875,0.2998655236766514
2.576171875,0.2927944760364276
2.578125,0.2851642712532834
2.580078125,0.29230533279833937
2.58203125,0.29059117028544096
2.583984375,0.26545027262139165
2.5859375,0.265705296858667
2.587890625,0.24887375157845448
2.58984375,0.2692962173793704
2.591796875,0.24097710679810258
2.59375,0.22862826269073686
2.595703125,0.23647154595198527
2.59765625,0.2375987217867204
2.599609375,0.224482686650712
2.6015625,0.21605168733381208
2.603515625,0.19091649811926012
2.60546875,0.20610172845432187
2.607421875,0.218005047127914
2.609375,0.2155459461223578
2.611328125,0.202106524426711
2.61328125,0.20543085383973753
2.615234375,0.22185906339400163
2.6171875,0.23440795133942224
2.619140625,0.2522374881638114
2.62109375,0.26919140772829264
2.623046875,0.3141326992139945
2.625,0.3499623138796309
2.626953125,0.3886178837796308
2.62890625,0.4210062153360549
2.630859375,0.48610075808588254
2.6328125,0.5632306366986025
2.634765625,0.6384112775773361
2.63671875,0.7368056561952017
2.638671875,0.8223466880663656
2.640625,0.919035813962365
2.642578125,1.0401060826917172
2.64453125,1.1247908331077119
2.646484375,1.2385466103212095
2.6484375,1.3729000130102298
2.650390625,1.480522008877816
2.65234375,1.5710566863217914
2.654296875,1.6863037081285501
2.65625,1.7844182443344152
2.658203125,1.853603788982181
2.66015625,1.9126699019462914
2.662109375,1.9665162136614158
2.6640625,2.0185518921850516
2.666015625,2.0313220674988357
2.66796875,2.0197099489347865
2.669921875,1.986900518409523
2.671875,1.9497323091837808
2.673828125,1.9060946461421835
2.67578125,1.8381498048605482
2.677734375,1.7317041826900244
2.6796875,1.658236528032346
2.681640625,1.546735850174702
2.68359375,1.4204775524550777
2.685546875,1.3235804861834608
2.6875,1.19105201595575
2.689453125,1.0648485918784396
2.69140625,0.9660029138951867
2.693359375,0.8472832401759722
2.6953125,0.7391881813453802
2.697265625,0.6552132720800623
2.69921875,0.5749654762506913
2.701171875,0.49658137833094385
2.703125,0.42980587435690765
2.705078125,0.3482938400553704
2.70703125,0.3221348095182101
2.708984375,0.2596290086305428
2.7109375,0.22576865854729858
2.712890625,0.19125691145316284
2.71484375,0.1651716924854778
2.716796875,0.15285912869669466
2.71875,0.1496910504091325
2.720703125,0.10148816869950221
2.72265625,0.09963167459822626
2.724609375,0.11703514071589043
2.7265625,0.07773111459208087
2.728515625,0.0918757317667364
2.73046875,0.09698533694692746
2.732421875,0.10909492391276518
2.734375,0.10708702527459762
2.736328125,0.1083266337012197
2.73828125,0.1148983919791188
2.740234375,0.11338694894601807
2.7421875,0.12046510863513013
2.744140625,0.1370406403291274
2.74609375,0.14728412542343705
2.748046875,0.13629399284498475
2.75,0.13893144871128865
2.751953125,0.1649684321450972
2.75390625,0.17390700634802034
2.755859375,0.16672753376373434
2.7578125,0.18221029061810476
2.759765625,0.17508797260070647
2.76171875,0.18603704304168847
2.763671875,0.1865953098528539
2.765625,0.2040921922143019
2.767578125,0.21887007981462042
2.76953125,0.24120268484555568
2.771484375,0.251078818546228
2.7734375,0.2536731906985069
2.775390625,0.2527840657730719
2.77734375,0.2689429498044463
2.779296875,0.2863347787733308
2.78125,0.28456130314132594
2.783203125,0.2788269627933796
2.78515625,0.30573080670533104
2.787109375,0.30865203294109567
2.7890625,0.31766189089001556
2.791015625,0.3090457562429009
2.79296875,0.3279584975362755
2.794921875,0.35375641715586487
2.796875,0.37413334362042333
2.798828125,0.3750109475617726
2.80078125,0.4027244646062152
2.802734375,0.4158312578409034
2.8046875,0.42739818322969664
2.806640625,0.42431713610595617
2.80859375,0.4274882680446609
2.810546875,0.4096010587419182
2.8125,0.434953214677451
2.814453125,0.4384264948660328
2.81640625,0.4730074895600623
2.818359375,0.48774673123516926
2.8203125,0.474535747976074
2.822265625,0.4787883819757081
2.82421875,0.4906353647450416
2.826171875,0.5026598952008738
2.828125,0.5131982576115545
2.830078125,0.5253662554829949
2.83203125,0.531932659092478
2.833984375,0.5489149424090931
2.8359375,0.5503055442730059
2.837890625,0.5317916613256066
2.83984375,0.556151357385489
2.841796875,0.5648506868479
2.84375,0.5528601585899284
2.845703125,0.6036340318880683
2.84765625,0.5822887426003223
2.849609375,0.5596190662427938
2.8515625,0.5823163556095315
2.853515625,0.5958599078105348
2.85546875,0.5910405273361955
2.857421875,0.5901632459332511
2.859375,0.5947069255066453
2.861328125,0.599085558146905
2.86328125,0.5884881952211222
2.865234375,0.602818034581023
2.8671875,0.617293772075913
2.869140625,0.6020839285420306
2.87109375,0.598325108221499
2.873046875,0.601623695641656
2.875,0.6225723054154886
2.876953125,0.6070936670404997
2.87890625,0.5999103966745436
2.880859375,0.5736909381705717
2.8828125,0.5640558373661211
2.884765625,0.563343778087653
2.88671875,0.5848763508606276
2.888671875,0.5746149098468873
2.890625,0.5741724572922572
2.892578125,0.5541200196230447
2.89453125,0.5579089486907617
2.896484375,0.5625665396367694
2.8984375,0.5513388133075141
2.900390625,0.5412638649271239
2.90234375,0.5213108986950814
2.904296875,0.5124620701693308
2.90625,0.5101121246809653
2.908203125,0.5039843755782581
2.91015625,0.4989577002638776
2.912109375,0.48666938671057586
2.9140625,0.4716677261590607
2.916015625,0.4710149086726404
2.91796875,0.44761137948442625
2.919921875,0.45909810748304214
2.921875,0.4414775094618479
2.923828125,0.43025860560126833
2.92578125,0.42349853189202413
2.927734375,0.41748115587959944
2.9296875,0.38745325898865235
2.931640625,0.4003557762030277
2.93359375,0.38217959665800766
2.935546875,0.3827879149145366
2.9375,0.3718219280369705
2.939453125,0.33918951463015296
2.94140625,0.32566225766149415
2.943359375,0.3136031907079642
2.9453125,0.31581224048795864
2.947265625,0.30676643799999653
2.94921875,0.3000374669654304
2.951171875,0.2867327434484323
2.953125,0.2734007118793543
2.955078125,0.27345530212474706
2.95703125,0.2576464957092768
2.958984375,0.24201569288546293
2.9609375,0.23277776757957236
2.962890625,0.22224930222018877
2.96484375,0.21301575802288353
2.966796875,0.21908570666387972
2.96875,0.20188984993296202
2.970703125,0.20440177067317605
2.97265625,0.18459456437986044
2.974609375,0.1853471877280497
2.9765625,0.16993384737075937
2.978515625,0.16803319106296427
2.98046875,0.1852065183827235
2.982421875,0.14494473377117598
2.984375,0.13873307948913638
2.986328125,0.15256583554526348
2.98828125,0.12722903023834503
2.990234375,0.13643161693672687
2.9921875,0.1093106435826141
2.994140625,0.11503626042496358
2.99609375,0.09945547497565536
2.998046875,0.10694221188648327
3.0,0.08779827464196727
3.001953125,0.09754406550400371
3.00390625,0.0849930529729343
3.005859375,0.08806522577974041
3.0078125,0.08627442155650829
3.009765625,0.07021479996804116
3.01171875,0.07296677200059092
3.013671875,0.061938460516028186
3.015625,0.0664492125329417
3.017578125,0.058506782491293007
3.01953125,0.06608332429283217
3.021484375,0.048012064867184734
3.0234375,0.05373331203298803
3.025390625,0.039580230942745126
3.02734375,0.04216295967521509
3.029296875,0.034223916729071886
3.03125,0.0427131275446325
3.033203125,0.029316938265005664
3.03515625,0.03474208020392561
3.037109375,0.008117253884357696
3.0390625,0.02083428440676245
3.041015625,0.026540404048001943
3.04296875,0.006804707513024944
3.044921875,0.021863365765987033
3.046875,0.030355497523611056
3.048828125,0.012248828629271857
3.05078125,0.0018874837035885387
3.052734375,0.013876609793028554
3.0546875,0.02138187566465392
3.056640625,0.020342571133548554
3.05859375,0.023917615028407915
3.060546875,0.012190064301466668
3.0625,-0.013948204522112513
3.064453125,0.014389289090209279
3.06640625,0.01852111769275304
3.068359375,0.028882804841000538
3.0703125,0.012375115457224502
3.072265625,0.006968545141723266
3.07421875,0.0074144892462615995
3.076171875,0.01636477303599156
3.078125,0.0037960542717643563
3.080078125,0.019455834169308076
3.08203125,-0.004116698196945064
3.083984375,-0.006580530157068687
3.0859375,-0.00833959258038259
3.087890625,-0.021780415184715466
3.08984375,0.011396373061778204
3.091796875,0.009291917597702037
3.09375,-0.0008554193787174089
3.095703125,0.0015837017898021953
3.09765625,0.00678068433324147
3.099609375,0.0038700041373277154
3.1015625,0.004351915848842138
3.103515625,-0.0037808160009360275
3.10546875,0.0017687840588227022
3.107421875,0.005874933336452513
3.109375,-0.0031041096520866124
3.111328125,-0.008353627086768893
3.11328125,-0.006545112869776817
3.115234375,-0.014802458925078093
3.1171875,0.003942328658487391
3.119140625,-0.00947486660438312
3.12109375,-0.015094811701090415
3.123046875,-0.0008641406044982017
3.125,-0.0007281575292471879
3.126953125,0.013116893893659658
3.12890625,0.008846127098861031
3.130859375,0.02397583792085841
3.1328125,0.013735333911220924
3.134765625,-0.009180033472857825
3.13671875,-0.01359481198523997
3.138671875,0.0025642546300498007
3.140625,-0.0053876194412532845
3.142578125,-0.00272843691779628
3.14453125,0.01572784399560247
3.146484375,-0.0036990570832267184
3.1484375,-0.009369167590675817
3.150390625,-0.008091364955486428
3.15234375,0.001437259515723354
3.154296875,0.006975613329680265
3.15625,0.006764730773360798
3.158203125,-0.0015333589364070848
3.16015625,0.00909190687745801
3.162109375,-0.012589808593227399
3.1640625,-0.006340979001931136
3.166015625,-0.009668636514471895
3.16796875,-0.015428796328183043
3.169921875,-0.004563649272182995
3.171875,0.005170953832321238
3.173828125,-0.02226400491878108
3.17578125,0.007488567803776052
3.177734375,0.0038102186506633125
3.1796875,0.029153788287023974
3.181640625,-0.002048027745387816
3.18359375,-0.008660505257383624
3.185546875,-0.00289464972699373
3.1875,-0.00622071339412692
3.189453125,-0.008274837177712158
3.19140625,0.006242459466165544
3.193359375,0.001958321351112656
3.1953125,-0.007715156844943941
3.197265625,0.0015522902911925549
3.19921875,0.0012593778087110533
3.201171875,0.00034743447948015695
3.203125,-0.013057945797244317
3.205078125,0.010107144528893457
3.20703125,-0.00676402628211206
3.208984375,0.006566906199420603
3.2109375,-0.02861768271114861
3.212890625,0.0041479010166258524
3.21484375,0.0068499987417391965
3.216796875,-0.010610204709901934
3.21875,0.004598824531272074
3.220703125,0.0010951193903510565
3.22265625,-0.023995587939040545
3.224609375,-0.005238429916690628
3.2265625,-0.005088928437459913
3.228515625,-0.006182966015980492
3.23046875,0.0149920054251021
3.232421875,-0.010201067980238072
3.234375,-0.012662571012490256
3.236328125,0.00256745852783081
3.23828125,-0.007252021465776802
3.240234375,-0.0056984270450374545
3.2421875,-0.0004928370817167652
3.244140625,-0.00491070010012627
3.24609375,-0.005733066138318632
3.248046875,0.0014931577021267265
3.25,0.014529995620263766
3.251953125,0.003973366954705793
3.25390625,0.015227495037910477
3.255859375,-0.008004890533551332
3.2578125,0.00046537616145012295
3.259765625,0.013039373157044723
3.26171875,0.03107998811179093
3.263671875,-0.011164114866071401
3.265625,0.007043583048035217
3.267578125,-0.006519083931421307
3.26953125,-0.004329815439188615
3.271484375,-0.01972438759030897
3.2734375,0.010594609613914199
3.275390625,0.004013276120021796
3.27734375,0.00994917573971276
3.279296875,-5.9656510657441916e-05
3.28125,0.014157491412968225
3.283203125,0.015372324824652337
3.28515625,0.004769508409487163
3.287109375,0.010620011342527847
3.2890625,0.006356764900083986
3.291015625,0.012726023812371104
3.29296875,-0.011670971240916586
3.294921875,0.025088252376683405
3.296875,0.009421934108675912
3.298828125,0.03231270905405774
3.30078125,0.013858351112145227
3.302734375,0.02358701873288677
3.3046875,0.008157420622726093
3.306640625,0.00431742530082384
3.30859375,0.025690429148561737
3.310546875,0.023237922083619997
3.3125,0.024395693164695382
3.314453125,0.04328149567733504
3.31640625,0.03242632309566354
3.318359375,0.03901046035890762
3.3203125,0.036073883664705673
3.322265625,0.03145616571674924
3.32421875,0.0395390516445556
3.326171875,0.03336569701672823
3.328125,0.0757002800929819
3.330078125,0.0716246313327894
3.33203125,0.0766818677784446
3.333984375,0.06646185537136039
3.3359375,0.10024305851739856
3.337890625,0.10257961722357925
3.33984375,0.09485936765658841
3.341796875,0.10494489003202005
3.34375,0.11168976747641904
3.345703125,0.11670187913600227
3.34765625,0.1355116103797456
3.349609375,0.1340291929481324
3.3515625,0.13233000923389127
3.353515625,0.15436902176612888
3.35546875,0.14663309074020228
3.357421875,0.17747019857295807
3.359375,0.17881786716275888
3.361328125,0.1732856606633559
3.36328125,0.2048127321838696
3.365234375,0.20673310581891313
3.3671875,0.21994302956167996
3.369140625,0.22577977610450373
3.37109375,0.21281039021734588
3.373046875,0.24652302482548838
3.375,0.23141840562787233
3.376953125,0.2714973593040352
3.37890625,0.26842800136289957
3.380859375,0.28547069408288545
3.3828125,0.28088340245439736
3.384765625,0.28098532233595463
3.38671875,0.2999669093973209
3.388671875,0.28732792840687776
3.390625,0.2955673059479265
3.392578125,0.2811845894647228
3.39453125,0.29319359950332297
3.396484375,0.2889972372288811
3.3984375,0.2918589477089935
3.400390625,0.2915905332706561
3.40234375,0.3118250078170356
3.404296875,0.30218460855982127
3.40625,0.29774820092686105
3.408203125,0.29450605829290866
3.41015625,0.29918990655153305
3.412109375,0.27714173909092044
3.4140625,0.28499608565422674
3.416015625,0.2796459541324087
3.41796875,0.262652000267308
3.419921875,0.2539244217639451
3.421875,0.2563688433106921
3.423828125,0.2533127132059992
3.42578125,0.2526274978831048
3.427734375,0.24950047715056622
3.4296875,0.23105222756337307
3.431640625,0.22879361334668044
3.43359375,0.2240683592517689
3.435546875,0.20943285150937985
3.4375,0.20150607570375217
3.439453125,0.20928995876192047
3.44140625,0.21180671241996188
3.443359375,0.21475744945734654
3.4453125,0.20533383771519811
3.447265625,0.22477296203315145
3.44921875,0.2461892646287177
3.451171875,0.23862743147406368
3.453125,0.2628672638585509
3.455078125,0.2705574861192992
3.45703125,0.2979811392384691
3.458984375,0.3346277458928884
3.4609375,0.4131591776963128
3.462890625,0.45705195666731685
3.46484375,0.5183182057408183
3.466796875,0.5950668026510997
3.46875,0.6696264692985286
3.470703125,0.759881709483768
3.47265625,0.8402198718468914
3.474609375,0.959983433294252
3.4765625,1.0653218244549016
3.478515625,1.1610243010323305
3.48046875,1.2825507529070208
3.482421875,1.4027743561027326
3.484375,1.4979213805698155
3.486328125,1.61780225075928
3.48828125,1.7134038927596809
3.490234375,1.8225793244502027
3.4921875,1.864524047565873
3.494140625,1.9429148216106853
3.49609375,2.003624373314263
3.498046875,2.0299863722849762
3.5,2.0207602689602973
3.501953125,2.0018090167581533
3.50390625,1.9930595879234037
3.505859375,1.9541836024437669
3.5078125,1.8895775879055419
3.509765625,1.794256047329417
3.51171875,1.7292929539153397
3.513671875,1.6185999399174045
3.515625,1.493812389569231
3.517578125,1.3723587448406733
3.51953125,1.2576603607179215
3.521484375,1.1517138727698237
3.5234375,1.0303367731319313
3.525390625,0.9226078175295394
3.52734375,0.8145030005394744
3.529296875,0.7144439533094762
3.53125,0.6403151640394946
3.533203125,0.5458115401167151
3.53515625,0.46604603404768813
3.537109375,0.3781418184752625
3.5390625,0.35508556805034436
3.541015625,0.3125935612378246
3.54296875,0.24744044930969375
3.544921875,0.20256677348957347
3.546875,0.17282882135565308
3.548828125,0.1483441658697926
3.55078125,0.12824247574378195
3.552734375,0.10860427567655057
3.5546875,0.11226425230233407
3.556640625,0.10700675584411952
3.55859375,0.10312450255219664
3.560546875,0.10841336326876368
3.5625,0.11216453779217143
3.564453125,0.08482534167684933
3.56640625,0.10081612595821243
3.568359375,0.09530671175465365
3.5703125,0.1158987418236582
3.572265625,0.1073773494309089
3.57421875,0.11145830811169384
3.576171875,0.12244711367837854
3.578125,0.14129038800424973
3.580078125,0.13673709968108358
3.58203125,0.1304824690855497
3.583984375,0.16454918383779418
3.5859375,0.15274165225315778
3.587890625,0.16386004015424732
3.58984375,0.17498480847432782
3.591796875,0.1826934037085958
3.59375,0.18967998414525902
3.595703125,0.20397189185189638
3.59765625,0.19601567135098735
3.599609375,0.2249451972191213
3.6015625,0.21232362574200725
3.603515625,0.2271384983134966
3.60546875,0.24237282294221976
3.607421875,0.2629015896597232
3.609375,0.2499128442249645
3.611328125,0.2704078567888889
3.61328125,0.26836162396858576
3.615234375,0.27143803963939217
3.6171875,0.2929003386976734
3.619140625,0.31326014497267196
3.62109375,0.3212243344853561
3.623046875,0.3374605113349785
3.625,0.35145778771709235
3.626953125,0.3599939273586618
3.62890625,0.3638734810538067
3.630859375,0.3545612336670022
3.6328125,0.38256100681318306
3.634765625,0.39006325276923454
3.63671875,0.4038479698079091
3.638671875,0.4002193821484459
3.640625,0.4410956736697319
3.642578125,0.43686691191184657
3.64453125,0.42539728633490137
3.646484375,0.4484796901338466
3.6484375,0.45622476531874057
3.650390625,0.48779960923022525
3.65234375,0.4865475017018463
3.654296875,0.4861413944026856
3.65625,0.486580087353619
3.658203125,0.5052301913435207
3.66015625,0.5000365922886003
3.662109375,0.5156050024101245
3.6640625,0.5308245109388855
3.666015625,0.514972042504931
3.66796875,0.5301965256501167
3.669921875,0.5463259446281541
3.671875,0.5652844692518916
3.673828125,0.5686756736322514
3.67578125,0.5579303957859497
3.677734375,0.5823256899934671
3.6796875,0.5883256832219381
3.681640625,0.5738566210809323
3.68359375,0.5875980486246448
3.685546875,0.5867667704040822
3.6875,0.5966879553046575
3.689453125,0.5863698931117018
3.69140625,0.6058228402502339
3.693359375,0.5963324096176911
3.6953125,0.607299125822923
3.697265625,0.6091715128006184
3.69921875,0.6005852562342654
3.701171875,0.5994598933433961
3.703125,0.5998297821559049
3.705078125,0.5868939635902052
3.70703125,0.5903930732464163
3.708984375,0.5756270913864925
3.7109375,0.5811737837857527
3.712890625,0.5822202588033945
3.71484375,0.586722831719307
3.716796875,0.5734417366748782
3.71875,0.5884350514134339
3.720703125,0.5618295768425
3.72265625,0.5608181831055618
3.724609375,0.5667059684030326
3.7265625,0.5552547110484165
3.728515625,0.5446797342407049
3.73046875,0.5495509347499523
3.732421875,0.5362007900398132
3.734375,0.5306534979420704
3.736328125,0.5224581400051241
3.73828125,0.5186160459471064
3.740234375,0.5233120534797369
3.7421875,0.5090815770354694
3.744140625,0.4920746989857248
3.74609375,0.46252084232134194
3.748046875,0.4833022964637283
3.75,0.438450014382314
3.751953125,0.4487728685850839
3.75390625,0.45034489450891263
3.755859375,0.43966655548392697
3.7578125,0.4115365383925063
3.759765625,0.412788296991009
3.76171875,0.3972335476993474
3.763671875,0.3977780164197067
3.765625,0.3759297600755054
3.767578125,0.37229507791941313
3.76953125,0.36393759197627473
3.771484375,0.35301144023143877
3.7734375,0.3429883801198247
3.775390625,0.3513839247757965
3.77734375,0.3373173949444421
3.779296875,0.29992642110082507
3.78125,0.3069639033418588
3.783203125,0.30432211510219376
3.78515625,0.28912889156173593
3.787109375,0.26946523746867823
3.7890625,0.26731794627341227
3.791015625,0.23502197630594004
3.79296875,0.23162984481722523
3.794921875,0.24842723044903176
3.796875,0.21740103333894314
3.798828125,0.2243820344921876
3.80078125,0.22918447824845564
3.802734375,0.20793576359588464
3.8046875,0.19527256944783766
3.806640625,0.1971126104719158
3.80859375,0.18437571335054165
3.810546875,0.17207452998072706
3.8125,0.15900736096421994
3.814453125,0.1600322799792673
3.81640625,0.15290466502518135
3.818359375,0.14350085804428075
3.8203125,0.15553150771425422
3.822265625,0.13383855888122895
3.82421875,0.13846905090746825
3.826171875,0.11158894396335077
3.828125,0.12117981173421499
3.830078125,0.1028329629924489
3.83203125,0.08483227418174782
3.833984375,0.10194449403139577
3.8359375,0.09814274300700454
3.837890625,0.09317484893295157
3.83984375,0.07804714883066231
3.841796875,0.07795724917281946
3.84375,0.06887695513909609
3.845703125,0.04116710343422515
3.84765625,0.07071795077751866
3.849609375,0.0680460573943305
3.8515625,0.0684820176508626
3.853515625,0.05036823090808027
3.85546875,0.059330682432834764
3.857421875,0.03639463845976028
3.859375,0.054992246636827745
3.861328125,0.03914486963539021
3.86328125,0.03704518784230963
3.865234375,0.03435418614877856
3.8671875,0.038053139973015924
3.869140625,0.025296698006468096
3.87109375,0.02263493892716255
3.873046875,0.027011708187107894
3.875,0.020907870832267486
3.876953125,0.041372481763633034
3.87890625,0.027846699999601744
3.880859375,0.032464583843566715
3.8828125,0.02453599729133682
3.884765625,0.03255042685184832
3.88671875,0.022595907689185468
3.888671875,0.00972585736278719
3.890625,0.01630242232144962
3.892578125,0.007628035101283577
3.89453125,0.02272590654708626
3.896484375,0.02842010742014022
3.8984375,0.014062302563712832
3.900390625,0.015963936044676087
3.90234375,0.014664070044653407
3.904296875,0.022359798626556703
3.90625,0.030121928401803503
3.908203125,0.011717969916269522
3.91015625,0.01154340100005334
3.912109375,-0.010244395671234065
3.9140625,0.00852433960121944
3.916015625,0.0014893143948994853
3.91796875,0.008858535367758106
3.919921875,-0.005316325919988541
3.921875,0.008349606678789588
3.923828125,-0.013172045856213479
3.92578125,0.008307451957019053
3.927734375,0.006881317838953482
3.9296875,0.018940631330367108
3.931640625,-0.006791312869043808
3.93359375,0.002532764642577875
3.935546875,-0.0033516976124683177
3.9375,-0.0027905484057610536
3.939453125,0.00565898764969652
3.94140625,0.010556782880938554
3.943359375,0.004978880057345968
3.9453125,0.007388644070820018
3.947265625,0.009185843780690536
3.94921875,-0.018804090808602687
3.951171875,-0.011515916996123766
3.953125,0.007703995535984694
3.955078125,0.00623833894700604
3.95703125,-0.004247292760643867
3.958984375,-0.0023935646377455377
3.9609375,-0.020522306234897755
3.962890625,0.01767575072902692
3.96484375,0.0015719966246327249
3.966796875,0.015385927951690942
3.96875,0.024731948026524463
3.970703125,0.0012122174924938558
3.97265625,-0.01290454598202631
3.974609375,0.010847309714062779
3.9765625,0.02399113837259262
3.978515625,0.005845699571356982
3.98046875,-0.0014620563343787616
3.982421875,0.015926536962209276
3.984375,-0.005801648825769392
3.986328125,-0.0028827524546845007
3.98828125,0.015532310809962953
3.990234375,-0.007167539710698908
3.9921875,0.01304835458176088
3.994140625,-0.005537268053641526
3.99609375,0.01339327262792524
3.998046875,0.004694883546257072
4.0,-0.009384407293007983
4.001953125,0.0006224181785410892
4.00390625,-0.014759076083410315
4.005859375,-0.008517200055246532
4.0078125,0.0056398149380174544
4.009765625,-0.005964784205050731
4.01171875,-0.002833374926799052
4.013671875,-0.007921894314709223
4.015625,0.0039169904519985015
4.017578125,0.007640552227179309
4.01953125,-0.011938199231251752
4.021484375,0.014287665084895115
4.0234375,0.01585560673795429
4.025390625,0.014883948951290546
4.02734375,-0.013191615671758063
4.029296875,0.001896437032463331
4.03125,-0.0011073752496294225
4.033203125,0.013722229178746109
4.03515625,-0.017004417796435516
4.037109375,0.0024379716240426536
4.0390625,0.005034519536584386
4.041015625,0.01739548060859084
4.04296875,0.013689854018105305
4.044921875,0.002231879072581359
4.046875,0.014215767419089295
4.048828125,0.006874046437703571
4.05078125,-0.010702054699040089
4.052734375,-0.015454438167226288
4.0546875,-0.0016578668517403287
4.056640625,-0.0008447021940515128
4.05859375,0.00205490691424893
4.060546875,-0.006778881532908655
4.0625,-0.0002790467861035185
4.064453125,-0.009204161890632922
4.06640625,-0.008341617629126035
4.068359375,0.00010122801194131523
4.0703125,0.013755866744699361
4.072265625,-0.009833735611757542
4.07421875,0.015937558277451844
4.076171875,0.0009074636298238484
4.078125,-0.00959702308847764
4.080078125,0.015108245963091444
4.08203125,0.013138866490125339
4.083984375,0.0198405932095716
4.0859375,-0.004685929110634798
4.087890625,-0.0021261818116424486
4.08984375,-0.00676093626173646
4.091796875,0.001667933757230734
4.09375,0.005407917478319073
4.095703125,-0.013439737359387046
4.09765625,0.002940062400451759
4.099609375,0.009523720802305983
4.1015625,0.0023380891560886167
4.103515625,-0.001060212000065545
4.10546875,0.0017272945162584317
4.107421875,0.011032403139963525
4.109375,-0.01301992271780177
4.111328125,-0.00857903635161922
4.11328125,0.012031134873445785
4.115234375,-0.00849228568384588
4.1171875,-0.004188468337915256
4.119140625,0.01954070941303131
4.12109375,0.003586915378590038
4.123046875,0.01139109063556596
4.125,0.020246904396588068
4.126953125,0.015040469376135858
4.12890625,0.008553504321617689
4.130859375,0.0013358701514576694
4.1328125,0.011982196550289148
4.134765625,0.010342552588375334
4.13671875,0.01810010860403559
4.138671875,0.011571117467696058
4.140625,0.011090849822989945
4.142578125,0.019855260438464785
4.14453125,0.005424767268598247
4.146484375,0.0244329423956499
4.1484375,0.010942257519897889
4.150390625,0.03313391303108035
4.15234375,0.03157935384819478
4.154296875,0.04323425958551092
4.15625,0.042474397821156966
4.158203125,0.05867776574466587
4.16015625,0.04742008942040189
4.162109375,0.03982292624415527
4.1640625,0.05384129468059541
4.166015625,0.061606792334688965
4.16796875,0.06905510113750973
4.169921875,0.10256269779698446
4.171875,0.09366051984814922
4.173828125,0.1001975665932561
4.17578125,0.11735057178304233
4.177734375,0.11375265214843422
4.1796875,0.1052498891703452
4.181640625,0.1382110868334377
4.18359375,0.136749660128169
4.185546875,0.14776247023851866
4.1875,0.1745601482169271
4.189453125,0.16005947226138614
4.19140625,0.17059914807837306
4.193359375,0.19432646479110616
4.1953125,0.1989022484262827
4.197265625,0.19017285493539707
4.19921875,0.22098093514460984
4.201171875,0.23277887926190766
4.203125,0.2154846924417001
4.205078125,0.22931092117964114
4.20703125,0.23533062296803042
4.208984375,0.25673491885864747
4.2109375,0.26416436592345227
4.212890625,0.27272015475444306
4.21484375,0.2618898437303857
4.216796875,0.2683053185100946
4.21875,0.2890638383986437
4.220703125,0.29629781745437866
4.22265625,0.29448449740732846
4.224609375,0.27967743206854484
4.2265625,0.2916794754711778
4.228515625,0.30480817917190717
4.23046875,0.30640015968649237
4.232421875,0.3000115697445024
4.234375,0.29379067403184966
4.236328125,0.30843767285436413
4.23828125,0.30617380256654386
4.240234375,0.2910712905159365
4.2421875,0.28001558855353353
4.244140625,0.27976238338327286
4.24609375,0.2790019376284327
4.248046875,0.2766502401900719
4.25,0.276329511697406
4.251953125,0.2581519747253973
4.25390625,0.2738295223472745
4.255859375,0.264931563458421
4.2578125,0.2669563405140916
4.259765625,0.23002388934246032
4.26171875,0.2387742056468726
4.263671875,0.2021550719190032
4.265625,0.21195800364790796
4.267578125,0.21563932411394454
4.26953125,0.1967509327245083
4.271484375,0.20909080658065138
4.2734375,0.2036726900501206
4.275390625,0.22193193042351306
4.27734375,0.20013318006741246
4.279296875,0.2214976724927506
4.28125,0.21601305033442111
4.283203125,0.2246050353687272
4.28515625,0.2418344796498009
4.287109375,0.24065848582587093
4.2890625,0.28518900814564435
4.291015625,0.3185858690325841
4.29296875,0.37324669210025785
4.294921875,0.4150508319368372
4.296875,0.47832090813768896
4.298828125,0.5178818648376361
4.30078125,0.5901632620590427
4.302734375,0.6898747963113518
4.3046875,0.7814202239744458
4.306640625,0.8573513332776383
4.30859375,0.9936760106243483
4.310546875,1.0976843649152872
4.3125,1.2107640334054701
4.314453125,1.335761695717202
4.31640625,1.4344840629897528
4.318359375,1.5330341590553707
4.3203125,1.6683342064256357
4.322265625,1.7290715124831528
4.32421875,1.8453958772824397
4.326171875,1.8864506946193766
4.328125,1.9749822071300531
4.330078125,1.998164110643564
4.33203125,2.0052182258429365
4.333984375,2.0179765787252184
4.3359375,1.9996267150951808
4.337890625,1.9520582245776126
4.33984375,1.9199512485926602
4.341796875,1.8469337218997464
4.34375,1.753472931676992
4.345703125,1.6767462780477391
4.34765625,1.5727996979205119
4.349609375,1.4470186417624742
4.3515625,1.3455996355353435
4.353515625,1.2153952242674662
4.35546875,1.115973327366236
4.357421875,0.9858328226352742
4.359375,0.8788143267981419
4.361328125,0.7944454770039285
4.36328125,0.6928984310434515
4.365234375,0.5854809348455785
4.3671875,0.5243960160586353
4.369140625,0.44103987753766655
4.37109375,0.357363617066652
4.373046875,0.33375597713123023
4.375,0.27003576471534735
4.376953125,0.23588765806823125
4.37890625,0.21091852264317568
4.380859375,0.1828041279738093
4.3828125,0.1437727448897385
4.384765625,0.1452807018445172
4.38671875,0.12653536302810617
4.388671875,0.12075225515361881
4.390625,0.10902955728184718
4.392578125,0.10857002145767573
4.39453125,0.10686636546845932
4.396484375,0.09618282039230949
4.3984375,0.11080065525718605
4.400390625,0.11096274166710349
4.40234375,0.10377523226519385
4.404296875,0.10548925391481413
4.40625,0.12276574173184795
4.408203125,0.12236858469536158
4.41015625,0.12487422668387853
4.412109375,0.11949116356953564
4.4140625,0.13808989197566526
4.416015625,0.14642850593507353
4.41796875,0.14518555549837914
4.419921875,0.15758458025310626
4.421875,0.17564126848457567
4.423828125,0.17639207875544935
4.42578125,0.18448899994260184
4.427734375,0.20007545966054333
4.4296875,0.2140820768739356
4.431640625,0.19617081582993265
4.43359375,0.23713742544126185
4.435546875,0.22404003824410365
4.4375,0.23679219030248183
4.439453125,0.23547821729383456
4.44140625,0.27123700664489137
4.443359375,0.2561132974617733
4.4453125,0.27384016045699716
4.447265625,0.2767415309875368
4.44921875,0.28846727344564466
4.451171875,0.3005389365707533
4.453125,0.30902784548171075
4.455078125,0.3281694119066088
4.45703125,0.32588279628750255
4.458984375,0.33361346615661613
4.4609375,0.3305064948089737
4.462890625,0.3640888564085745
4.46484375,0.3912103371051135
4.466796875,0.3928502724273509
4.46875,0.39662330990914907
4.470703125,0.3916219735163755
4.47265625,0.39210378996720846
4.474609375,0.4231628950286057
4.4765625,0.4250070312234727
4.478515625,0.4313227715720943
4.48046875,0.44121877657006253
4.482421875,0.46377111952010486
4.484375,0.4764242419550509
4.486328125,0.4856372108308418
4.48828125,0.4900053134840933
4.490234375,0.4986648900078771
4.4921875,0.5036846815087449
4.494140625,0.5151466382445385
4.49609375,0.5316436042705008
4.498046875,0.5406695432216198
4.5,0.5417869678250332
4.501953125,0.5558585774172775
4.50390625,0.5482203266597906
4.505859375,0.5509673229627216
4.5078125,0.5648423264805708
4.509765625,0.5666411433206794
4.51171875,0.5801489407244758
4.513671875,0.57615417133278
4.515625,0.5845054425267419
4.517578125,0.5851014289221966
4.51953125,0.5971908920429791
4.521484375,0.5996263177601217
4.5234375,0.5919701273099301
4.525390625,0.609442192820429
4.52734375,0.6037264225051429
4.529296875,0.6136491878092849
4.53125,0.6088879448058011
4.533203125,0.5993292511546462
4.53515625,0.5901122894173711
4.537109375,0.5992291606731629
4.5390625,0.592994235254186
4.541015625,0.5788312305631107
4.54296875,0.5962274065581329
4.544921875,0.5993184125039347
4.546875,0.5832774166636563
4.548828125,0.5780214838850192
4.55078125,0.5772243678552424
4.552734375,0.5722721496956793
4.5546875,0.5751597671183253
4.556640625,0.5535337849710302
4.55859375,0.5793151292203995
4.560546875,0.5678416273716178
4.5625,0.5353910016135399
4.564453125,0.5536962085581111
4.56640625,0.5338638678774719
4.568359375,0.535591136934175
4.5703125,0.5046505932398329
4.572265625,0.5187109664884827
4.57421875,0.4950680857265187
4.576171875,0.4937710930738241
4.578125,0.48670284571577516
4.580078125,0.4668933590806529
4.58203125,0.47119669148800264
4.583984375,0.47592482356850796
4.5859375,0.4674950652634481
4.587890625,0.42643567208384736
4.58984375,0.4327558295703273
4.591796875,0.41277072602763193
4.59375,0.4050826272664931
4.595703125,0.4004422410190424
4.59765625,0.3852131376788998
4.599609375,0.3636047306331778
4.6015625,0.3764513748556715
4.603515625,0.35892758929062063
4.60546875,0.35620023685896535
4.607421875,0.35056051766214474
4.609375,0.34026106758099217
4.611328125,0.3303695847471916
4.61328125,0.323763523742231
4.615234375,0.29102397133757185
4.6171875,0.2849634167152788
4.619140625,0.2855709166913068
4.62109375,0.2753752516680602
4.623046875,0.254268525502111
4.625,0.24169561159217579
4.626953125,0.2691649861816968
4.62890625,0.2334440530709047
4.630859375,0.2387049937046565
4.6328125,0.22610792653357425
4.634765625,0.20717464175002578
4.63671875,0.1946010486296043
4.638671875,0.18446871430011266
4.640625,0.1756912922269891
4.642578125,0.168533234237281
4.64453125,0.1581608142894399
4.646484375,0.15946216121149268
4.6484375,0.16458327560172162
4.650390625,0.15023010781956503
4.65234375,0.14013795359392978
4.654296875,0.14082562209998192
4.65625,0.13023541383799203
4.658203125,0.13246961313809383
4.66015625,0.1163703449133401
4.662109375,0.12906000330542236
4.6640625,0.12392506315119863
4.666015625,0.09419387956581678
4.66796875,0.08297475432823215
4.669921875,0.09674988103804774
4.671875,0.10058399521696652
4.673828125,0.06450087024349949
4.67578125,0.06506924289214558
4.677734375,0.06988499835647628
4.6796875,0.048025840490921734
4.681640625,0.06107692269088649
4.68359375,0.053077926390099034
4.685546875,0.04840869493570235
4.6875,0.07026254747521857
4.689453125,0.06867722719962219
4.69140625,0.05323946638092932
4.693359375,0.050665106795492604
4.6953125,0.04953732887647738
4.697265625,0.03259386630212902
4.69921875,0.036213446811773645
4.701171875,0.025719258556681255
4.703125,0.05715956711588137
4.705078125,0.04042994756847394
4.70703125,0.017011864945067606
4.708984375,0.029469306354812517
4.7109375,0.008539470485077133
4.712890625,-0.007838073334621855
4.71484375,0.030750321978753912
4.716796875,0.01872294353402339
4.71875,0.01846783867089387
4.720703125,0.005568944401275382
4.72265625,0.030860642943946574
4.724609375,0.006118349269788399
4.7265625,0.010232166683618189
4.728515625,0.016885325149365762
4.73046875,0.018946790526243564
4.732421875,0.01890093826074494
4.734375,0.01305273889860811
4.736328125,0.00444239088435837
4.73828125,0.01845776295002652
4.740234375,-0.002305527154051468
4.7421875,0.0004654163125078828
4.744140625,0.012288559109956259
4.74609375,0.018648733886127172
4.748046875,-0.012252396128886614
4.75,0.011821721905739269
4.751953125,-0.0028129499283019934
4.75390625,-0.000677756512798055
4.755859375,0.01969632666362994
4.7578125,-0.013933952081356378
4.759765625,0.007928681660109332
4.76171875,-0.012354876812597613
4.763671875,-0.002349984133915588
4.765625,0.009065267823285188
4.767578125,0.007699148988139751
4.76953125,0.015643681537210487
4.771484375,-0.010910997904064697
4.7734375,0.0015096084552814644
4.775390625,0.0032807912884817406
4.77734375,-0.009289738947219964
4.779296875,0.003046085165477154
4.78125,-0.018605671359441522
4.783203125,0.014820130081756418
4.78515625,-0.002557571642332815
4.787109375,-0.012441692149212659
4.7890625,0.009824165875298482
4.791015625,-0.00663973375366274
4.79296875,0.0008372772964491666
4.794921875,-0.011801762005619212
4.796875,0.0036686345500313365
4.798828125,0.004589347676968324
4.80078125,0.003774973627452928
4.802734375,-0.00766301854337688
4.8046875,-0.003253414272938995
4.806640625,0.008381318092333025
4.80859375,0.007704138060242532
4.810546875,-0.013617352735466543
4.8125,8.023393418887672e-05
4.814453125,-0.013723301868419675
4.81640625,-0.0037523467105952325
4.818359375,-0.01319386588770905
4.8203125,-0.0033475514031475755
4.822265625,0.001522649649011442
4.82421875,0.00998908703823378
4.826171875,-0.0008586808098925398
4.828125,-0.0013000270267765227
4.830078125,-0.0009554274843244692
4.83203125,0.008525755090740161
4.833984375,-0.000827876505407904
4.8359375,0.013179762226528042
4.837890625,-0.0059562432666048284
4.83984375,-0.0053457648351825406
4.841796875,-0.00367451602961277
4.84375,2.7065542481318383e-05
4.845703125,-0.006807655402929681
4.84765625,-0.0033379363439362125
4.849609375,0.011559099415753199
4.8515625,-0.0006732941913252051
4.853515625,0.006445135835471321
4.85546875,-0.022918885932955633
4.857421875,5.572704893750058e-05
4.859375,0.005997615106726091
4.861328125,-0.006606423992588895
4.86328125,-0.01584367624838604
4.865234375,-0.016494646118640623
4.8671875,-0.017594802290748623
4.869140625,-0.0024110573067207403
4.87109375,-0.00278467891157117
4.873046875,-0.01211169100516852
4.875,0.0013017913872001563
4.876953125,0.0057424862034214045
4.87890625,0.02155755968467574
4.880859375,0.003350920535219139
4.8828125,-0.006838920948720814
4.884765625,-0.025787392425526044
4.88671875,-0.00754774676038499
4.888671875,-0.005675858240112465
4.890625,-0.00012423017873372592
4.892578125,-0.0028989047283931573
4.89453125,-0.009356306019117735
4.896484375,0.00017251744791350686
4.8984375,0.0164702213617445
4.900390625,0.005023627965289288
4.90234375,0.00796528958899029
4.904296875,0.003118720269197412
4.90625,-0.018959971401849005
4.908203125,0.0039001669291847726
4.91015625,-0.00029971202545274694
4.912109375,0.009966501121650094
4.9140625,-0.0007168294100086955
4.916015625,-0.013183150860865314
4.91796875,-0.01436107642320903
4.919921875,0.010112819340913723
4.921875,-0.012345167621384955
4.923828125,-0.005658732233933169
4.92578125,-0.005823288123508531
4.927734375,-0.003501984943666511
4.9296875,0.0014582234531627606
4.931640625,-0.006080491044008073
4.93359375,0.0007674120437589963
4.935546875,0.008702703509100506
4.9375,-0.012041628258035389
4.939453125,-0.0034122912697265952
4.94140625,0.015282881361019652
4.943359375,0.005401318626396568
4.9453125,-0.005642790639044908
4.947265625,0.005717178052997951
4.94921875,-0.021614017789698913
4.951171875,-0.0022331827060685636
4.953125,-0.00700736294202691
4.955078125,0.007935239461341064
4.95703125,0.01849101955001174
4.958984375,-0.0014658954174294862
4.9609375,0.012786108240921792
4.962890625,0.007683248359774882
4.96484375,0.011843155181934295
4.966796875,0.03362867682643603
4.96875,0.0002899993463959452
4.970703125,0.003688771836848698
4.97265625,0.004960639644045437
4.974609375,0.027162254117714568
4.9765625,0.028961215151655884
4.978515625,0.03525661829323108
4.98046875,0.03893859006741756
4.982421875,0.05469592472560907
4.984375,0.03546440207747253
4.986328125,0.03160434271612466
4.98828125,0.039321912231587555
4.990234375,0.04278738322803811
4.9921875,0.036502491928672026
4.994140625,0.04898443675485389
4.99609375,0.05333819225778154
4.998046875,0.060180360817641186
5.0,0.06569954095651465
5.001953125,0.08454040694958245
5.00390625,0.09686409927881465
5.005859375,0.10044810964577448
5.0078125,0.12458895942656202
5.009765625,0.11511774544924329
5.01171875,0.11727810343333574
5.013671875,0.13467349468138334
5.015625,0.12310320148987468
5.017578125,0.15393890231120186
5.01953125,0.14455698411965273
5.021484375,0.15576867721076015
5.0234375,0.16636365655323337
5.025390625,0.16465739899550302
5.02734375,0.1957441449353988
5.029296875,0.18511761624744447
5.03125,0.21997406794156352
5.033203125,0.21225653752010365
5.03515625,0.21500187104541188
5.037109375,0.24041118236235695
5.0390625,0.23172568872842228
5.041015625,0.24231916954003094
5.04296875,0.25266939667004085
5.044921875,0.2611847048314114
5.046875,0.27246592680462306
5.048828125,0.2648924760967165
5.05078125,0.26512322549390055
5.052734375,0.2761891049211875
5.0546875,0.283937326674832
5.056640625,0.29815709290549114
5.05859375,0.3000535927973545
5.060546875,0.29807225778100344
5.0625,0.3189142248601917
5.064453125,0.30757260854755997
5.06640625,0.3058250747640258
5.068359375,0.31548980629515855
5.0703125,0.297419045742968
5.072265625,0.28701936676086975
5.07421875,0.29197686510730547
5.076171875,0.28597334008135716
5.078125,0.28509326453479944
5.080078125,0.2791509637063745
5.08203125,0.2763951579478783
5.083984375,0.2594900798776376
5.0859375,0.2707514142015537
5.087890625,0.2590917345029833
5.08984375,0.25244909115344116
5.091796875,0.25383510487775457
5.09375,0.23755495812094377
5.095703125,0.23164313809603204
5.09765625,0.2342491141380629
5.099609375,0.2310297716260803
5.1015625,0.22430211575766587
5.103515625,0.22047770547954448
5.10546875,0.20332310800891357
5.107421875,0.19237153306498686
5.109375,0.19631218554171612
5.111328125,0.21001382005401914
5.11328125,0.19400848326810927
5.115234375,0.22487060354932137
5.1171875,0.23275136573099298
5.119140625,0.22644036634460502
5.12109375,0.26807384901851794
5.123046875,0.2941998137124793
5.125,0.33170622348884277
5.126953125,0.37175221385469903
5.12890625,0.4280605053385206
5.130859375,0.4991658496952209
5.1328125,0.5673026558679015
5.134765625,0.6526294590736429
5.13671875,0.7115158942520735
5.138671875,0.8100831659421265
5.140625,0.9214535599522099
5.142578125,1.0102694612069507
5.14453125,1.1257512939639294
5.146484375,1.248283702791639
5.1484375,1.3539084805069765
5.150390625,1.4832798393024236
5.15234375,1.6058817076723664
5.154296875,1.692714708383229
5.15625,1.779497808163819
5.158203125,1.842175139737149
5.16015625,1.9276629789762496
5.162109375,1.9856097995209612
5.1640625,2.0029660413705876
5.166015625,2.02092870341193
5.16796875,2.0324178414917218
5.169921875,2.0083872711269306
5.171875,1.9614080439218626
5.173828125,1.891407281054012
5.17578125,1.8282020390640743
5.177734375,1.7386888091820825
5.1796875,1.639230371962796
5.181640625,1.5389428434764083
5.18359375,1.4180070800772937
5.185546875,1.314712749284983
5.1875,1.1842716443929693
5.189453125,1.0909233844971662
5.19140625,0.9524804620856899
5.193359375,0.8587726127332608
5.1953125,0.7478866130310775
5.197265625,0.6630139102657437
5.19921875,0.5787972035391499
5.201171875,0.4818205677193004
5.203125,0.41600963851364814
5.205078125,0.35140573976679196
5.20703125,0.3062634268491944
5.208984375,0.2477871592577426
5.2109375,0.22615382096159567
5.212890625,0.19405348593310634
5.21484375,0.18362893645311779
5.216796875,0.12211951871487478
5.21875,0.1257303792778084
5.220703125,0.11252725651809457
5.22265625,0.12259610505772059
5.224609375,0.11228085626472427
5.2265625,0.0939055754815019
5.228515625,0.10760667459171788
5.23046875,0.11014598684034868
5.232421875,0.10389580320764866
5.234375,0.1142832778175899
5.236328125,0.1195674038160944
5.23828125,0.12196810394358953
5.240234375,0.1292282227868938
5.2421875,0.12769909634912474
5.244140625,0.1335321815352923
5.24609375,0.13522546256539267
5.248046875,0.14170771579752403
5.25,0.13622194484858535
5.251953125,0.1548523159116032
5.25390625,0.15357286851212798
5.255859375,0.17611011332198515
5.2578125,0.1774973174399448
5.259765625,0.20209341479094498
5.26171875,0.1922106804911396
5.263671875,0.19537715029364786
5.265625,0.2272178782356491
5.267578125,0.22705433762542562
5.26953125,0.2295394983466786
5.271484375,0.24151812088324345
5.2734375,0.2506452340069142
5.275390625,0.25691024619986913
5.27734375,0.26907104602710796
5.279296875,0.2825440422237557
5.28125,0.27861189362147604
5.283203125,0.30350531540949477
5.28515625,0.3150338960233994
5.287109375,0.3216941198195147
5.2890625,0.3229419300410617
5.291015625,0.3216712511523179
5.29296875,0.35949783973337734
5.294921875,0.3678560952516
5.296875,0.3602128265889864
5.298828125,0.4004402758693866
5.30078125,0.38814803589382046
5.302734375,0.3972499010416227
5.3046875,0.4168150788509471
5.306640625,0.42208210135410784
5.30859375,0.41333099340918983
5.310546875,0.43536889047562516
5.3125,0.4407344299499142
5.314453125,0.45216686479308354
5.31640625,0.47289111030094505
5.318359375,0.46680951769021184
5.3203125,0.47428025094589055
5.322265625,0.4799543184992916
5.32421875,0.4859294113998272
5.326171875,0.5110950948326155
5.328125,0.5227662170232881
5.330078125,0.52172010235144
5.33203125,0.5389471504811352
5.333984375,0.545280216259345
5.3359375,0.5338107770995479
5.337890625,0.5586900003378042
5.33984375,0.5556984299979251
5.341796875,0.5577505532577797
5.34375,0.5681726602076409
5.345703125,0.570272393704869
5.34765625,0.5857981338420755
5.349609375,0.5633979826460092
5.3515625,0.5888589080779396
5.353515625,0.5697599471058844
5.35546875,0.5971915683676131
5.357421875,0.5887170420013006
5.359375,0.5910996209182714
5.361328125,0.6039733794883024
5.36328125,0.5859171200106036
5.365234375,0.5944928128484932
5.3671875,0.5952428336990492
5.369140625,0.5902772299898095
5.37109375,0.6065220196035079
5.373046875,0.6059162632744827
5.375,0.5971491716027169
5.376953125,0.5939308772437324
5.37890625,0.5783287744982345
5.380859375,0.5835359679841193
5.3828125,0.5845493721975387
5.384765625,0.5782380969845808
5.38671875,0.5962945159593434
5.388671875,0.5735936020007922
5.390625,0.5636286189075853
5.392578125,0.5502175413470037
5.39453125,0.5569618726554345
5.396484375,0.545278422618107
5.3984375,0.5425059043536236
5.400390625,0.5199478088943722
5.40234375,0.5257960728412661
5.404296875,0.5022444431990132
5.40625,0.5046547793175388
5.408203125,0.5052386623608456
5.41015625,0.4841720013882273
5.412109375,0.48097481690164723
5.4140625,0.4805837195561641
5.416015625,0.4766286453284997
5.41796875,0.45332697969951796
5.419921875,0.4462582546580398
5.421875,0.45173836351615887
5.423828125,0.4108776822758185
5.42578125,0.42678904497250125
5.427734375,0.41616882537931094
5.4296875,0.4027797321812996
5.431640625,0.39499168019965175
5.43359375,0.37942432918729047
5.435546875,0.3689391166589233
5.4375,0.35764859574817576
5.439453125,0.3573828544422459
5.44140625,0.34165932509565117
5.443359375,0.32342740463576597
5.4453125,0.32951612509052924
5.447265625,0.2940344187019739
5.44921875,0.2971662504602383
5.451171875,0.29735506829089586
5.453125,0.277332437379041
5.455078125,0.2808510206843019
5.45703125,0.2507749644884064
5.458984375,0.24738091612549987
5.4609375,0.24938663487505694
5.462890625,0.2373635099160337
5.46484375,0.24012551332884233
5.466796875,0.21727609835906161
5.46875,0.20706469547652148
5.470703125,0.20100224618471046
5.47265625,0.2022551496197103
5.474609375,0.17837107138827177
5.4765625,0.1867238476706602
5.478515625,0.15706458357277225
5.48046875,0.16029187637919046
5.482421875,0.1592111692281643
5.484375,0.14910981167422918
5.486328125,0.13411595868710546
5.48828125,0.11835253019785484
5.490234375,0.12698745928868665
5.4921875,0.13276279973701366
5.494140625,0.12215093124850473
5.49609375,0.11566389620646711
5.498046875,0.0789675610861927
5.5,0.1114276434074553
5.501953125,0.10235005618719191
5.50390625,0.09010306115814178
5.505859375,0.07199058295346922
5.5078125,0.0711093341158828
5.509765625,0.0571266234504636
5.51171875,0.07323791902909009
5.513671875,0.05649858758948808
5.515625,0.04056397428644453
5.517578125,0.06399603673856222
5.51953125,0.03222349821458393
5.521484375,0.04518358952089226
5.5234375,0.0682250452436879
5.525390625,0.04355727531243564
5.52734375,0.0337871805496586
5.529296875,0.043510947907213875
5.53125,0.027129272514035747
5.533203125,0.034350286953025076
5.53515625,0.03714125134146505
5.537109375,0.02045627699158476
5.5390625,0.0343828945162251
5.541015625,0.027098318366074726
5.54296875,0.041735753658234766
5.544921875,0.020384986230204145
5.546875,0.022345538423519037
5.548828125,0.008699137427797553
5.55078125,0.022026130844707753
5.552734375,0.015459448488203086
5.5546875,0.015517693995592356
5.556640625,0.007503009176809473
5.55859375,0.007193639750636971
5.560546875,0.004718854362428694
5.5625,0.012776863785159794
5.564453125,-0.006726986918287322
5.56640625,0.020303902498488013
5.568359375,0.01183470696271864
5.5703125,0.00785309328587524
5.572265625,0.02602277560485644
5.57421875,0.007626840169486389
5.576171875,0.008746588722808117
5.578125,0.01774414994443653
5.580078125,0.015090410999880871
5.58203125,0.005084983363661096
5.583984375,0.02123455189353268
5.5859375,0.0042011118262072255
5.587890625,-0.011340554283800684
5.58984375,0.004171340831643761
5.591796875,-0.0008631219865974758
5.59375,-0.004166520495025518
5.595703125,-0.007573834062695305
5.59765625,-0.0013805689792009688
5.599609375,0.012191282386976138
5.6015625,-0.0015328252233129272
5.603515625,0.0067950611936266085
5.60546875,0.01749450749443281
5.607421875,0.00040022760739432214
5.609375,-0.010935453527978187
5.611328125,0.02249031584662419
5.61328125,0.014395826766849336
5.615234375,0.008594350077374332
5.6171875,0.0058296362844613755
5.619140625,0.006026682372470194
5.62109375,-0.004990531323055041
5.623046875,0.013309218805955628
5.625,-0.0008575333193080866
5.626953125,0.001317004453761525
5.62890625,0.009805117697963182
5.630859375,0.0033780469566030906
5.6328125,-0.011986993215673763
5.634765625,-0.003556047225596047
5.63671875,-0.007229087801924718
5.638671875,0.013233603244395403
5.640625,0.010770653207427419
5.642578125,0.00186311436776769
5.64453125,0.0034647143321588736
5.646484375,0.009950196073538193
5.6484375,0.016551663504674095
5.650390625,0.023897281827687168
5.65234375,0.010502038001051131
5.654296875,0.0044816041847781695
5.65625,-0.0058283120289770295
5.658203125,0.012436369277273455
5.66015625,0.00452866115244166
5.662109375,0.01223455652704688
5.6640625,0.015764226851843942
5.666015625,-0.006702999288927179
5.66796875,-0.00859826174388341
5.669921875,0.014078090572461446
5.671875,0.0074768646520042064
5.673828125,-0.0002453196089113166
5.67578125,0.00989865757759412
5.677734375,0.00703416896310726
5.6796875,-0.0024695543605933136
5.681640625,0.00702875501734774
5.68359375,0.008517557386811524
5.685546875,-0.00180852351782522
5.6875,-0.012448447366555896
5.689453125,-0.013003106908692245
5.69140625,0.027615648838922188
5.693359375,-0.00014506308570822572
5.6953125,-0.0027142360026567807
5.697265625,0.0020192434354655833
5.69921875,0.01698083075326103
5.701171875,-0.00040488402792013896
5.703125,0.001368241836544501
5.705078125,0.010242684081298432
5.70703125,-0.003043989972263627
5.708984375,-0.02096416887743019
5.7109375,0.005028869887083252
5.712890625,0.0006360688545158614
5.71484375,0.003092246368721891
5.716796875,-0.005808738062178515
5.71875,-0.007460313541557242
5.720703125,0.005601366094153287
5.72265625,-0.0033866930137036563
5.724609375,0.008513660914660047
5.7265625,0.012798861443102504
5.728515625,-0.006640209999783701
5.73046875,0.007003583487201536
5.732421875,-0.00499142202893429
5.734375,-0.0007365746284595672
5.736328125,-0.013912349224603097
5.73828125,0.011909947512459636
5.740234375,0.0072954158906734035
5.7421875,0.009213330253752683
5.744140625,-0.009039191514136818
5.74609375,0.013373338065664122
5.748046875,-0.00436555414318886
5.75,-0.014115857933746489
5.751953125,0.013035399479102643
5.75390625,-0.0017269794281503125
5.755859375,-0.003134176173878984
5.7578125,0.006300912428645262
5.759765625,-0.004702542116402496
5.76171875,0.025539424029609674
5.763671875,0.007201607361660705
5.765625,-0.005411991969736098
5.767578125,-0.004824144817612787
5.76953125,-0.00850472978504381
5.771484375,0.019072662747910328
5.7734375,-0.009829768187166224
5.775390625,0.005758060543473465
5.77734375,0.010221035373592669
5.779296875,0.0036286905277523847
5.78125,0.015876667011015977
5.783203125,0.0037133298652490734
5.78515625,0.005786920978240149
5.787109375,0.013551865306786861
5.7890625,-0.013100228605148695
5.791015625,-0.004100964740278786
5.79296875,0.0026542355658309273
5.794921875,0.0067334819215709475
5.796875,0.011854150473353626
5.798828125,0.021425206351351915
5.80078125,-0.004518634860996454
5.802734375,2.9778238047754873e-05
5.8046875,0.04181028800538105
5.806640625,0.026794985113285992
5.80859375,0.03438880083554041
5.810546875,0.014174290535790056
5.8125,0.01929270034472955
5.814453125,0.031719731879374824
5.81640625,0.039732003637396936
5.818359375,0.046036154340651114
5.8203125,0.036447756331184196
5.822265625,0.032118473606186984
5.82421875,0.04978097233325035
5.826171875,0.05094899631885013
5.828125,0.05885408063561735
5.830078125,0.06436434929342247
5.83203125,0.07470340940869939
5.833984375,0.09351565644014857
5.8359375,0.07672122595277311
5.837890625,0.10079717165256255
5.83984375,0.10264111458333376
5.841796875,0.10520815426695485
5.84375,0.10219814917922067
5.845703125,0.12856453324805608
5.84765625,0.1268265750278083
5.849609375,0.14239217958958714
5.8515625,0.13326849486503653
5.853515625,0.15452729311819374
5.85546875,0.1544766386916153
5.857421875,0.15526651799638755
5.859375,0.16593958462199693
5.861328125,0.17910908384438437
5.86328125,0.19427216557875773
5.865234375,0.18672419353189998
5.8671875,0.22589470150633495
5.869140625,0.23107816764047798
5.87109375,0.233879346617327
5.873046875,0.22476471478625187
5.875,0.256476447300746
5.876953125,0.23698066906045726
5.87890625,0.2617404664639136
5.880859375,0.26333621112601474
5.8828125,0.2745494825807149
5.884765625,0.27710270021291933
5.88671875,0.2875532138075823
5.888671875,0.293478901307302
5.890625,0.286558831433454
5.892578125,0.29730097964480395
5.89453125,0.29728432921483666
5.896484375,0.28957277000610926
5.8984375,0.298639521177985
5.900390625,0.2867755874545488
5.90234375,0.3352067262489418
5.904296875,0.29307361268956833
5.90625,0.3084079484198748
5.908203125,0.3027009890404642
5.91015625,0.3004271700451166
5.912109375,0.28362643088303585
5.9140625,0.28039550835315613
5.916015625,0.286878591592957
5.91796875,0.2705211989772687
5.919921875,0.2738054830727089
5.921875,0.27781693331024077
5.923828125,0.25520741602957064
5.92578125,0.25272987511657996
5.927734375,0.23908701467301657
5.9296875,0.24164855286958678
5.931640625,0.2241630964335338
5.93359375,0.21587702408460444
5.935546875,0.21436773557401917
5.9375,0.20550903581847937
5.939453125,0.19367180464147865
5.94140625,0.19682595382684048
5.943359375,0.2133649277803073
5.9453125,0.20424022205500553
5.947265625,0.20922229592340064
5.94921875,0.2156397520850923
5.951171875,0.24554200896576545
5.953125,0.23631294043960585
5.955078125,0.27611920973179205
5.95703125,0.31097039470563054
5.958984375,0.35905788432990043
5.9609375,0.3814973580024438
5.962890625,0.46208140101182277
5.96484375,0.5061364017048089
5.966796875,0.5661648512047645
5.96875,0.6677222034433803
5.970703125,0.755564873627406
5.97265625,0.8424155448736547
5.974609375,0.9640211128910856
5.9765625,1.048290127474554
5.978515625,1.1689126309427496
5.98046875,1.2943809283294208
5.982421875,1.4061474920551258
5.984375,1.513547921995315
5.986328125,1.6173308982927943
5.98828125,1.717111763811508
5.990234375,1.810372333117491
5.9921875,1.8695480879423654
5.994140625,1.9354155721285806
5.99609375,2.0024467420758483
5.998046875,2.0189073325012115
6.0,2.0147482694915007
6.001953125,2.0065320353088385
6.00390625,1.9896494970352687
6.005859375,1.9390057490828927
6.0078125,1.8788496147818274
6.009765625,1.783628378342029
6.01171875,1.7054160066980308
6.013671875,1.6139545126122066
6.015625,1.4912522312076233
6.017578125,1.3807751544585782
6.01953125,1.264345563286478
6.021484375,1.1533524239832433
6.0234375,1.0262871177901514
6.025390625,0.9127694235177775
6.02734375,0.8098536561323819
6.029296875,0.703445115595251
6.03125,0.6168957410197888
6.033203125,0.5494314169860969
6.03515625,0.4580350750903456
6.037109375,0.4081106683381397
6.0390625,0.3386934129709844
6.041015625,0.28479755025459724
6.04296875,0.2234790239546164
6.044921875,0.2292713617689898
6.046875,0.1877028244340909
6.048828125,0.15433679498740221
6.05078125,0.14497244442205887
6.052734375,0.11925939261030612
6.0546875,0.12604217999624912
6.056640625,0.1176386700943799
6.05859375,0.12927182815486707
6.060546875,0.10147990080815736
6.0625,0.10076591259802815
6.064453125,0.12688100071863287
6.06640625,0.09005593621708868
6.068359375,0.09602175388484194
6.0703125,0.12194416312441943
6.072265625,0.12814613366158062
6.07421875,0.10690961797003938
6.076171875,0.1276517324181416
6.078125,0.1411733183735517
6.080078125,0.12817194441900145
6.08203125,0.14027683105065977
6.083984375,0.14288509248470752
6.0859375,0.1624994195757379
6.087890625,0.16753329850674592
6.08984375,0.193583769057001
6.091796875,0.19020852543112077
6.09375,0.20315427171379385
6.095703125,0.19386900006244262
6.09765625,0.2014312562445028
6.099609375,0.22426201271882215
6.1015625,0.24209448039875422
6.103515625,0.22544959547763554
6.10546875,0.24424012695841285
6.107421875,0.2644244869797561
6.109375,0.25801633113389205
6.111328125,0.27402094533062515
6.11328125,0.28036606556110444
6.115234375,0.30196315873320195
6.1171875,0.3064990380235578
6.119140625,0.30946123117832725
6.12109375,0.31583252880082624
6.123046875,0.30971315462251975
6.125,0.3348251996469241
6.126953125,0.3512177591128481
6.12890625,0.35503888898842334
6.130859375,0.3782208162160722
6.1328125,0.3921934674164622
6.134765625,0.39393769827235564
6.13671875,0.4141475068406448
6.138671875,0.40277134562488476
6.140625,0.4214637466082819
6.142578125,0.4165161659909166
6.14453125,0.4292494341842936
6.146484375,0.455752027229799
6.1484375,0.4731302793966863
6.150390625,0.4898836453724563
6.15234375,0.47480061965383885
6.154296875,0.491969868698974
6.15625,0.5125481093577653
6.158203125,0.47679935866599005
6.16015625,0.5179771519461801
6.162109375,0.512072681352368
6.1640625,0.5232107455180169
6.166015625,0.5418785070025715
6.16796875,0.5486220836535105
6.169921875,0.5458062181389421
6.171875,0.5501207707923292
6.173828125,0.550149603791327
6.17578125,0.5443051228523642
6.177734375,0.5571796110701611
6.1796875,0.597452771356311
6.181640625,0.5779727519497346
6.18359375,0.6074699121761055
6.185546875,0.5942472731220556
6.1875,0.594176363833147
6.189453125,0.5776974584485816
6.19140625,0.5901181987587688
6.193359375,0.5987841644103854
6.1953125,0.5995224327920395
6.197265625,0.5929028609886539
6.19921875,0.6043545024333757
6.201171875,0.5971114511380556
6.203125,0.6090223737929397
6.205078125,0.6048399535894985
6.20703125,0.5884063746148744
6.208984375,0.5859545269118331
6.2109375,0.5953239424328367
6.212890625,0.6005677869732124
6.21484375,0.5887473516440705
6.216796875,0.5797415831333206
6.21875,0.5556120983261167
6.220703125,0.5748800530683981
6.22265625,0.5595484288748257
6.224609375,0.5665263115052317
6.2265625,0.5621345797830857
6.228515625,0.5625235756618253
6.23046875,0.5531673978661524
6.232421875,0.5374827303093735
6.234375,0.5241318856288766
6.236328125,0.5206293010999912
6.23828125,0.5151027021984182
6.240234375,0.50590776988077
6.2421875,0.5128283159935958
6.244140625,0.49917824877089545
6.24609375,0.4700054637343691
6.248046875,0.48497963805512184
6.25,0.472838627053517
6.251953125,0.458825542868562
6.25390625,0.4419388475801641
6.255859375,0.42414632153204135
6.2578125,0.4292912906575162
6.259765625,0.40452613598143716
6.26171875,0.4194975817092107
6.263671875,0.3996684084357582
6.265625,0.36991491830480816
6.267578125,0.37127078514797873
6.26953125,0.36917594818034444
6.271484375,0.34619235800408454
6.2734375,0.3361959970139351
6.275390625,0.3345232304490079
6.27734375,0.3271750320674142
6.279296875,0.29858419455153873
6.28125,0.2875856041701071
6.283203125,0.2958053812466474
6.28515625,0.2944123780853409
6.287109375,0.2683927448282039
6.2890625,0.2709497815780339
6.291015625,0.25049996332314767
6.29296875,0.250069694029325
6.294921875,0.2427563989797297
6.296875,0.22465449900373358
6.298828125,0.2324256429075004
6.30078125,0.19985682857623974
6.302734375,0.20652823560870143
6.3046875,0.20422553153834266
6.306640625,0.1991795627609706
6.30859375,0.18474929894544842
6.310546875,0.15692635435811778
6.3125,0.15420969552493283
6.314453125,0.1627582852607585
6.31640625,0.1574529693271664
6.318359375,0.13483015203903131
6.3203125,0.15368869665967497
6.322265625,0.1299175146912117
6.32421875,0.1265875144280048
6.326171875,0.11427872719626665
6.328125,0.1186057223164012
6.330078125,0.11004625895108164
6.33203125,0.09742876548232193
6.333984375,0.09152522531726648
6.3359375,0.08256568428080077
6.337890625,0.0818534950511669
6.33984375,0.07635685391282022
6.341796875,0.06547082709680199
6.34375,0.06436350400567997
6.345703125,0.07506813427417895
6.34765625,0.0729906061474769
6.349609375,0.05719365159967135
6.3515625,0.05474806436191389
6.353515625,0.05290729239355311
6.35546875,0.055484499530761136
6.357421875,0.045642119305673634
6.359375,0.03888256734065168
6.361328125,0.06104607050447035
6.36328125,0.031088042154918238
6.365234375,0.03333146201994119
6.3671875,0.0037795505445970823
6.369140625,0.013974502063336312
6.37109375,0.02737670471059927
6.373046875,0.008474685873826975
6.375,0.01824367748488826
6.376953125,0.034579214385046485
6.37890625,0.027758502828250407
6.380859375,0.03142884994733587
6.3828125,0.015083930066130407
6.384765625,0.0149233376386569
6.38671875,0.008533828332198238
6.388671875,0.025721286020921667
6.390625,0.016545901352545838
6.392578125,0.007333741515495561
6.39453125,0.01512047842447526
6.396484375,0.021732460932562828
6.3984375,0.015347585513681969
6.400390625,0.004098054337091271
6.40234375,0.010052837155433111
6.404296875,0.023007898188765193
6.40625,0.008950511226160971
6.408203125,-0.004549524168762935
6.41015625,0.005063815241486001
6.412109375,0.018443288551600594
6.4140625,0.0017120531435403713
6.416015625,0.004487161876379066
6.41796875,0.0012648803636182034
6.419921875,0.0006257722127371351
6.421875,0.018525923883726772
6.423828125,0.01112892953859463
6.42578125,-0.0035765008212410862
6.427734375,-0.002512599774453757
6.4296875,-0.010433175068213443
6.431640625,-0.014803443153215827
6.43359375,0.012966272614647896
6.435546875,0.002520454140671391
6.4375,0.017528661291195916
6.439453125,0.003784042495274076
6.44140625,0.0019465132652887558
6.443359375,0.00143396756549284
6.4453125,0.004158157989690142
6.447265625,-0.02256557839947031
6.44921875,0.0025829483519649037
6.451171875,-0.01137668167834748
6.453125,-0.003398331635039324
6.455078125,0.010236121606382848
6.45703125,0.0008982707795948529
6.458984375,0.005241874724917458
6.4609375,-0.0036801503631824304
6.462890625,-0.009894493674961364
6.46484375,0.0006080160729143665
6.466796875,-0.013859665867954693
6.46875,0.009335082743844996
6.470703125,0.017470990951031714
6.47265625,-0.01600707511328914
6.474609375,-0.011711759577173523
6.4765625,0.005108987873904076
6.478515625,0.02083390096919337
6.48046875,0.0008859017601515253
6.482421875,0.005593346468485338
6.484375,0.0012150211702319333
6.486328125,-0.015600061828270602
6.48828125,0.017558139921176146
6.490234375,0.0018460179374885615
6.4921875,-0.004349658619089081
6.494140625,0.013138870376101392
6.49609375,-0.003935498509832722
6.498046875,0.006263651170423943
6.5,0.02100741259176725
6.501953125,8.55797714531877e-05
6.50390625,0.002901536489479133
6.505859375,-0.00011185104062423292
6.5078125,0.00026298259734054984
6.509765625,0.0075460358914824265
6.51171875,-0.0001953858932506369
6.513671875,0.012774659598440093
6.515625,-0.008931295345885494
6.517578125,-0.001558161153763856
6.51953125,-0.012361938817268908
6.521484375,-0.008224615749358363
6.5234375,-0.013462652390983928
6.525390625,0.000786355682255149
6.52734375,-0.013715033552468019
6.529296875,0.007502951020193886
6.53125,0.007842204024231181
6.533203125,-0.01284999211856467
6.53515625,0.000763789974256664
6.537109375,0.015366680265949745
6.5390625,-0.002271805342392845
6.541015625,-0.006378592986408863
6.54296875,0.0052247447845873455
6.544921875,0.007366961247793169
6.546875,-0.016293763649105526
6.548828125,-0.004281733340484429
6.55078125,-9.543854471358801e-05
6.552734375,0.007701848702565691
6.5546875,-0.002370102656216491
6.556640625,-0.01049541084155741
6.55859375,0.003778519123123518
6.560546875,-0.014281518056685127
6.5625,-0.011505203597095028
6.564453125,-0.0009421963104378568
6.56640625,0.01673602870847314
6.568359375,0.004090266317514495
6.5703125,0.00997796408319603
6.572265625,-0.010506135820011352
6.57421875,-0.021390825851203932
6.576171875,-0.007292744892663742
6.578125,-0.0029361169758897808
6.580078125,0.002940868332507954
6.58203125,0.012026014637289294
6.583984375,0.0069849636228594405
6.5859375,0.0036588163204051773
6.587890625,-0.007432932702909245
6.58984375,0.003353872562701323
6.591796875,0.0027690255473032336
6.59375,-0.0036449403234563
6.595703125,0.014167558706983318
6.59765625,-0.00022931297839562514
6.599609375,-5.757792551015235e-05
6.6015625,0.018104476654436725
6.603515625,0.01100046846978137
6.60546875,-0.009992698960032423
6.607421875,0.018825722548497188
6.609375,0.00846627618230192
6.611328125,0.0026506421054690705
6.61328125,-0.0020163129994781974
6.615234375,-0.004031099113401677
6.6171875,0.006785217329274002
6.619140625,-0.001226728166519799
6.62109375,0.013868389349440348
6.623046875,0.006378476510256161
6.625,0.0030456950187655236
6.626953125,0.0031428042267864446
6.62890625,-0.002486906576681136
6.630859375,0.024829745138001676
6.6328125,0.016512244667405206
6.634765625,0.005702598165523142
6.63671875,0.021324726171112914
6.638671875,0.02355958215643978
6.640625,0.01916225427033711
6.642578125,0.034035313203746594
6.64453125,0.026749436011129175
6.646484375,0.03088975912079796
6.6484375,0.03510061961577828
6.650390625,0.03735434416388469
6.65234375,0.023105973489899376
6.654296875,0.027482783459274553
6.65625,0.03864369238478421
6.658203125,0.06459529212051554
6.66015625,0.058519643718220486
6.662109375,0.06445962321085599
6.6640625,0.07736947312108206
6.666015625,0.06792011996622575
6.66796875,0.05379492829521239
6.669921875,0.07554655129998467
6.671875,0.0974814543158481
6.673828125,0.08828466422648641
6.67578125,0.10846505125691196
6.677734375,0.11858366460167057
6.6796875,0.12732225557334242
6.681640625,0.13012378975772504
6.68359375,0.13748490451530979
6.685546875,0.13995397414420702
6.6875,0.15077871050199432
6.689453125,0.16200296947526555
6.69140625,0.17803650999174073
6.693359375,0.16487393720223317
6.6953125,0.19629360068741505
6.697265625,0.2082339108277429
6.69921875,0.20841111922393257
6.701171875,0.21666738778696684
6.703125,0.20886890261917723
6.705078125,0.22394416628810687
6.70703125,0.2453379070318908
6.708984375,0.2364084657073252
6.7109375,0.2581128402578272
6.712890625,0.27198349823693135
6.71484375,0.2718539672655441
6.716796875,0.2814566969922447
6.71875,0.28757370103041746
6.720703125,0.28571076481673324
6.72265625,0.28354841848388096
6.724609375,0.2987508484307649
6.7265625,0.2958857238654019
6.728515625,0.30335914612380244
6.73046875,0.29212273648001175
6.732421875,0.29703722710511243
6.734375,0.28965928369478217
6.736328125,0.2934577149866183
6.73828125,0.31102404363637404
6.740234375,0.2949358115530885
6.7421875,0.27499848809861854
6.744140625,0.2906130736330113
6.74609375,0.2771913754422946
6.748046875,0.2739984193056355
6.75,0.27046276188554735
6.751953125,0.2809950709880357
6.75390625,0.2653728164621348
6.755859375,0.2691335314331735
6.7578125,0.2569764175955532
6.759765625,0.2467502580848939
6.76171875,0.2274945467380991
6.763671875,0.2151697094555686
6.765625,0.2344840516646844
6.767578125,0.20467824757073427
6.76953125,0.1999965791621926
6.771484375,0.19834632130138485
6.7734375,0.20302209412948988
6.775390625,0.202965647949742
6.77734375,0.18572481751022027
6.779296875,0.21139113992893463
6.78125,0.20932063048195418
6.783203125,0.21576086798435445
6.78515625,0.2319691266993259
6.787109375,0.25452465660029977
6.7890625,0.2833406921659777
6.791015625,0.32676457215362614
6.79296875,0.3694761155068811
6.794921875,0.40051294521803754
6.796875,0.44502825412604147
6.798828125,0.5177081316152615
6.80078125,0.6112530422546356
6.802734375,0.702683818140118
6.8046875,0.7982036779081071
6.806640625,0.871808293382144
6.80859375,0.971601264021548
6.810546875,1.1086729685030277
6.8125,1.2020239641142636
6.814453125,1.310280621339039
6.81640625,1.4432359059348563
6.818359375,1.5392811340286536
6.8203125,1.6552888407869228
6.822265625,1.7466185980664852
6.82421875,1.8314161456508398
6.826171875,1.8946018725446787
6.828125,1.9643232334392586
6.830078125,1.9917271513336114
6.83203125,2.0005674831001494
6.833984375,2.015095854856281
6.8359375,2.009864345689691
6.837890625,1.9770599505789646
6.83984375,1.9314197559831796
6.841796875,1.8664125676803058
6.84375,1.7773564446102907
6.845703125,1.6757443769619778
6.84765625,1.5732929650250715
6.849609375,1.461780281599563
6.8515625,1.3423841755188488
6.853515625,1.2326227631693816
6.85546875,1.1010078783411175
6.857421875,1.005748249078334
6.859375,0.871775790694828
6.861328125,0.7870952623243421
6.86328125,0.688677664482599
6.865234375,0.6038121877030038
6.8671875,0.5229661605847669
6.869140625,0.43429955658003533
6.87109375,0.3801782166879485
6.873046875,0.33291941229374483
6.875,0.2733670711240775
6.876953125,0.22946480099223698
6.87890625,0.20263213012209721
6.880859375,0.16572044960160986
6.8828125,0.15887805349846773
6.884765625,0.14758131263501031
6.88671875,0.1275576634796707
6.888671875,0.12507454470988932
6.890625,0.08642739850780398
6.892578125,0.10319867414378972
6.89453125,0.10512900441135542
6.896484375,0.11967488714914153
6.8984375,0.12317287065773184
6.900390625,0.11358147349179105
6.90234375,0.10664054406361137
6.904296875,0.11294811155610449
6.90625,0.110347759446059
6.908203125,0.11731024511562041
6.91015625,0.11507349249760228
6.912109375,0.1365678966897848
6.9140625,0.13871722735117123
6.916015625,0.14295314870869802
6.91796875,0.1566940738612252
6.919921875,0.16681147605818666
6.921875,0.1544845324664895
6.923828125,0.19036777341663005
6.92578125,0.19659293518104223
6.927734375,0.18140979755918094
6.9296875,0.20444522901996146
6.931640625,0.21785812447234845
6.93359375,0.21090955365008787
6.935546875,0.22569970950276158
6.9375,0.23484231469317354
6.939453125,0.2420525363468787
6.94140625,0.24678920191446801
6.943359375,0.26066262254524675
6.9453125,0.2782588439066863
6.947265625,0.2599231619403722
6.94921875,0.2992898096055518
6.951171875,0.295542114818455
6.953125,0.33487292738662044
6.955078125,0.3181302760611786
6.95703125,0.3359048350783133
6.958984375,0.35376493265326153
6.9609375,0.3874021035144329
6.962890625,0.3573795046507832
6.96484375,0.38545056744391903
6.966796875,0.3767713710369256
6.96875,0.392720039780373
6.970703125,0.4045278932387987
6.97265625,0.4009925598597863
6.974609375,0.4147666578451821
6.9765625,0.4255832330511824
6.978515625,0.44338228564361815
6.98046875,0.4489312448263829
6.982421875,0.48336761213116736
6.984375,0.4813805887987912
6.986328125,0.4951789416508032
6.98828125,0.49740490633206874
6.990234375,0.4887657711182141
6.9921875,0.5120428057344271
6.994140625,0.507606392385282
6.99609375,0.532141477465876
6.998046875,0.5206843276982157
7.0,0.5253235493097563
7.001953125,0.5405092403951555
7.00390625,0.5476529752868301
7.005859375,0.5519870765107757
7.0078125,0.5615687777205259
7.009765625,0.5702800066578655
7.01171875,0.5699224248766648
7.013671875,0.5740715640072668
7.015625,0.591787126385434
7.017578125,0.5841977408402838
7.01953125,0.5813398317284513
7.021484375,0.5970907601518688
7.0234375,0.5828985833862635
7.025390625,0.6121555558463725
7.02734375,0.5967056742117213
7.029296875,0.6106951083180016
7.03125,0.578819691380528
7.033203125,0.5948294414756478
7.03515625,0.6129191328612099
7.037109375,0.5903257248892674
7.0390625,0.6097536334583551
7.041015625,0.6123245089351521
7.04296875,0.6039247118160213
7.044921875,0.6030608598918286
7.046875,0.5905187946583973
7.048828125,0.5780986261171716
7.05078125,0.5741543373618756
7.052734375,0.5629574405406835
7.0546875,0.5946172632808604
7.056640625,0.5650260993737927
7.05859375,0.5669069402847065
7.060546875,0.5543569023428689
7.0625,0.5487954572193502
7.064453125,0.5352404051946206
7.06640625,0.5404145318863658
7.068359375,0.5358338113042277
7.0703125,0.5157304363118419
7.072265625,0.5195367612092391
7.07421875,0.4894713938600756
7.076171875,0.5131135836224889
7.078125,0.4853583043778834
7.080078125,0.4840320709248034
7.08203125,0.461928995772366
7.083984375,0.45373851382795244
7.0859375,0.4702377747213957
7.087890625,0.45623539098976434
7.08984375,0.4371799343276698
7.091796875,0.4269091073844631
7.09375,0.4310071790010568
7.095703125,0.4035040749039886
7.09765625,0.4030968452634384
7.099609375,0.37943553260494894
7.1015625,0.37021948401263666
7.103515625,0.34409456422904294
7.10546875,0.35610840976435004
7.107421875,0.3507569301109749
7.109375,0.3293303534918795
7.111328125,0.31494793289561424
7.11328125,0.3106582243571318
7.115234375,0.2976590408816422
7.1171875,0.28358549320650583
7.119140625,0.30102962917034276
7.12109375,0.277253371697305
7.123046875,0.2667470958844984
7.125,0.2605706217750626
7.126953125,0.24089132659144344
7.12890625,0.2220752305113029
7.130859375,0.23217113097970016
7.1328125,0.2067434118015474
7.134765625,0.2222569529205656
7.13671875,0.21890342284772038
7.138671875,0.18085827989650688
7.140625,0.17299221531024592
7.142578125,0.17846265170160255
7.14453125,0.1810112026600032
7.146484375,0.16036136306168633
7.1484375,0.15124379336083635
7.150390625,0.15134173008095017
7.15234375,0.1303173662536986
7.154296875,0.1328427077812905
7.15625,0.13028099196027154
7.158203125,0.12586650256669357
7.16015625,0.13444409598337903
7.162109375,0.10135959702938689
7.1640625,0.10915513145409196
7.166015625,0.11153592417395022
7.16796875,0.10272832488652382
7.169921875,0.08492622200426984
7.171875,0.08977803207237817
7.173828125,0.06721799868138585
7.17578125,0.06941329745535534
7.177734375,0.08595518554693765
7.1796875,0.0632055253037744
7.181640625,0.06898375627879966
7.18359375,0.0657855096447251
7.185546875,0.061051012049706435
7.1875,0.060794901237014025
7.189453125,0.0617559500026849
7.19140625,0.04681762625503091
7.193359375,0.05603473346737149
7.1953125,0.05675885880904005
7.197265625,0.03663774395051473
7.19921875,0.045815788842031385
7.201171875,0.03273624264906375
7.203125,0.035684103261001805
7.205078125,0.016451925857450613
7.20703125,0.0016841139156901158
7.208984375,0.020539801728198706
7.2109375,0.01798910127795223
7.212890625,0.011751989346045768
7.21484375,0.030394740436452485
7.216796875,0.012183636483258741
7.21875,0.025430465303830658
7.220703125,0.015571116537728273
7.22265625,0.01856677329934273
7.224609375,0.00932773867357806
7.2265625,0.02590648412977883
7.228515625,0.021289627676662454
7.23046875,0.023052017316477193
7.232421875,-0.0008231871201413157
7.234375,-0.005053361784275719
7.236328125,0.01813485854338266
7.23828125,0.005226334488015608
7.240234375,0.006037453960981203
7.2421875,-0.0012042474239748176
7.244140625,0.01116872785139354
7.24609375,-0.01876271176168429
7.248046875,0.0035617084474972843
7.25,0.015303782736143913
7.251953125,-0.002555486143751361
7.25390625,-0.011000433654052563
7.255859375,-0.006944232587925198
7.2578125,0.005894299979527973
7.259765625,-0.005087637824870383
7.26171875,0.0098885154555159
7.263671875,0.004828429273333629
7.265625,0.008584161689577034
7.267578125,0.01841005802964611
7.26953125,0.0042818100088838195
7.271484375,-0.008315849039266937
7.2734375,0.009559115517316571
7.275390625,0.0026216808999528413
7.27734375,0.01089517683881837
7.279296875,0.008174177423216493
7.28125,0.0008697766264888042
7.283203125,-0.006204048952405877
7.28515625,-0.014917110923142391
7.287109375,-0.004004070909923832
7.2890625,0.002867291147695776
7.291015625,-0.004330815439597788
7.29296875,-0.003546378421911713
7.294921875,-0.001399865959047405
7.296875,-0.0034298219358986216
7.298828125,0.0036118691051158502
7.30078125,-0.0022570839432402663
7.302734375,0.0014124028627796473
7.3046875,0.009849471427145472
7.306640625,-0.014802335817021567
7.30859375,-0.013649631255370024
7.310546875,0.014026770295866069
7.3125,0.006215972780546355
7.314453125,0.005860781771546347
7.31640625,1.0806708238642317e-05
7.318359375,0.009128066414690855
7.3203125,0.0062413281991456964
7.322265625,-0.003187586211599535
7.32421875,-0.011035914958788898
7.326171875,0.008808420516772351
7.328125,0.004404199713870689
7.330078125,-0.010583088118745414
7.33203125,0.013475175296809203
7.333984375,-0.01652140894031326
7.3359375,0.0008072851676621598
7.337890625,-0.013934103272258153
7.33984375,-0.00508322444721997
7.341796875,0.001317079168257897
7.34375,0.0122790026928723
7.345703125,0.008303334629095518
7.34765625,-0.021413314734168968
7.349609375,-0.0015147355736162245
7.3515625,-0.007686241877411184
7.353515625,-0.000853118456681531
7.35546875,-0.006435289078142193
7.357421875,-0.006506107183010778
7.359375,0.002931533940115602
7.361328125,-0.006535010719579157
7.36328125,-0.0006570365547668693
7.365234375,0.0011678786447886307
7.3671875,0.0011841976081501278
7.369140625,-0.019696799367510637
7.37109375,-0.009441462718696803
7.373046875,-0.00010390696200003545
7.375,0.0045869633760003215
7.376953125,-0.013009850817363344
7.37890625,-0.013805163816197013
7.380859375,0.005978515819287098
7.3828125,-0.004750528078013077
7.384765625,-0.0026359425168834597
7.38671875,0.014869159574599809
7.388671875,0.0072086510134757404
7.390625,-0.0036307351710479414
7.392578125,-0.0037438030990600826
7.39453125,0.010814552258637488
7.396484375,-0.005734708982710743
7.3984375,0.009473872637242736
7.400390625,0.00857145911234258
7.40234375,-0.0157393274769045
7.404296875,-0.007051669860338939
7.40625,-0.007964222076297857
7.408203125,-0.012805930489963525
7.41015625,-0.0053421205676692386
7.412109375,0.006732480596711635
7.4140625,0.005948334449438905
7.416015625,-0.00894056080501249
7.41796875,-0.014545697263485277
7.419921875,0.029231093649754136
7.421875,-0.016064847310955584
7.423828125,0.011851579769477377
7.42578125,-0.016395917575920394
7.427734375,0.010421117046093917
7.4296875,-0.003873051407869387
7.431640625,0.0036049990320146477
7.43359375,0.012580896925134769
7.435546875,0.013010568062987471
7.4375,0.002742780661856049
7.439453125,-0.005821026512697174
7.44140625,-0.005134947881516493
7.443359375,-0.005401704064407817
7.4453125,0.03202225783458404
7.447265625,-0.0009627674034989776
7.44921875,0.013474342239897857
7.451171875,-0.0029378010269393794
7.453125,0.009490444519588689
7.455078125,0.01173845327633663
7.45703125,-0.003477432716055239
7.458984375,0.005476477881938893
7.4609375,0.024875536191506155
7.462890625,0.010926064864231736
7.46484375,0.022845307647555962
7.466796875,0.001207329512589128
7.46875,0.02322186842099096
7.470703125,0.010942460564246817
7.47265625,0.0131079220909859
7.474609375,0.012017391341182508
7.4765625,0.015749942253414456
7.478515625,0.029935351785110843
7.48046875,0.034378648235186375
7.482421875,0.043129836861359384
7.484375,0.01646472555094868
7.486328125,0.055369142582813016
7.48828125,0.04626175919620185
7.490234375,0.053724500208013004
7.4921875,0.06338892122472714
7.494140625,0.05912252591465874
